Record Length,20480,,Source,CH1
Sample Interval,CH1:0.0000080000000,,Second,Volt
Vertical Units,CH1:V,,-0.08191999793,0.60000,
Vertical Scale,CH1:5.00,,-0.08191200346,0.60000,
Vertical Offset,CH1:0.00,,-0.08190400153,0.80000,
Horizontal Units,s,,-0.08189599961,0.60000,
Horizontal Scale,0.0049999999,,-0.08188799769,0.80000,
Model Number,SDS1102CNL+,,-0.08188000321,0.60000,
Serial Number,SDS10BA3163724,,-0.08187200129,0.80000,
Software Version,6.01.01.17,,-0.08186399937,0.80000,
,,,-0.08185599744,0.60000,
,,,-0.08184800297,0.80000,
,,,-0.08184000105,0.60000,
,,,-0.08183199912,0.60000,
,,,-0.08182399720,0.80000,
,,,-0.08181600273,0.80000,
,,,-0.08180800080,0.60000,
,,,-0.08179999888,0.80000,
,,,-0.08179199696,0.80000,
,,,-0.08178400248,0.80000,
,,,-0.08177600056,0.60000,
,,,-0.08176799864,0.80000,
,,,-0.08175999671,0.60000,
,,,-0.08175200224,0.80000,
,,,-0.08174400032,0.80000,
,,,-0.08173599839,0.60000,
,,,-0.08172799647,0.60000,
,,,-0.08172000200,0.60000,
,,,-0.08171200007,0.80000,
,,,-0.08170399815,0.60000,
,,,-0.08169599622,0.60000,
,,,-0.08168800175,0.60000,
,,,-0.08167999983,0.80000,
,,,-0.08167199790,0.60000,
,,,-0.08166400343,0.60000,
,,,-0.08165600151,0.60000,
,,,-0.08164799958,0.60000,
,,,-0.08163999766,0.80000,
,,,-0.08163200319,0.80000,
,,,-0.08162400126,0.60000,
,,,-0.08161599934,0.80000,
,,,-0.08160799742,0.80000,
,,,-0.08160000294,0.80000,
,,,-0.08159200102,0.60000,
,,,-0.08158399910,0.60000,
,,,-0.08157599717,0.80000,
,,,-0.08156800270,0.60000,
,,,-0.08156000078,0.60000,
,,,-0.08155199885,0.60000,
,,,-0.08154399693,0.80000,
,,,-0.08153600246,0.60000,
,,,-0.08152800053,0.60000,
,,,-0.08151999861,0.80000,
,,,-0.08151199669,0.80000,
,,,-0.08150400221,0.80000,
,,,-0.08149600029,0.80000,
,,,-0.08148799837,0.60000,
,,,-0.08147999644,0.80000,
,,,-0.08147200197,0.80000,
,,,-0.08146400005,0.80000,
,,,-0.08145599812,0.60000,
,,,-0.08144799620,0.80000,
,,,-0.08144000173,0.80000,
,,,-0.08143199980,0.80000,
,,,-0.08142399788,0.80000,
,,,-0.08141600341,0.60000,
,,,-0.08140800148,0.60000,
,,,-0.08139999956,0.80000,
,,,-0.08139199764,0.80000,
,,,-0.08138400316,0.60000,
,,,-0.08137600124,0.80000,
,,,-0.08136799932,0.80000,
,,,-0.08135999739,0.80000,
,,,-0.08135200292,0.80000,
,,,-0.08134400100,0.60000,
,,,-0.08133599907,0.80000,
,,,-0.08132799715,0.80000,
,,,-0.08132000268,0.60000,
,,,-0.08131200075,0.80000,
,,,-0.08130399883,0.60000,
,,,-0.08129599690,0.80000,
,,,-0.08128800243,0.80000,
,,,-0.08128000051,0.80000,
,,,-0.08127199858,0.80000,
,,,-0.08126399666,0.80000,
,,,-0.08125600219,0.80000,
,,,-0.08124800026,0.60000,
,,,-0.08123999834,0.60000,
,,,-0.08123199642,0.80000,
,,,-0.08122400194,0.60000,
,,,-0.08121600002,0.80000,
,,,-0.08120799810,0.80000,
,,,-0.08119999617,0.80000,
,,,-0.08119200170,0.60000,
,,,-0.08118399978,0.60000,
,,,-0.08117599785,0.80000,
,,,-0.08116800338,0.80000,
,,,-0.08116000146,0.80000,
,,,-0.08115199953,0.80000,
,,,-0.08114399761,0.60000,
,,,-0.08113600314,0.80000,
,,,-0.08112800121,0.80000,
,,,-0.08111999929,0.80000,
,,,-0.08111199737,0.80000,
,,,-0.08110400289,0.60000,
,,,-0.08109600097,0.80000,
,,,-0.08108799905,0.60000,
,,,-0.08107999712,0.60000,
,,,-0.08107200265,0.80000,
,,,-0.08106400073,0.80000,
,,,-0.08105599880,0.80000,
,,,-0.08104799688,0.80000,
,,,-0.08104000241,0.80000,
,,,-0.08103200048,0.60000,
,,,-0.08102399856,0.60000,
,,,-0.08101599663,0.80000,
,,,-0.08100800216,0.80000,
,,,-0.08100000024,0.60000,
,,,-0.08099199831,0.80000,
,,,-0.08098399639,0.80000,
,,,-0.08097600192,0.80000,
,,,-0.08096799999,0.80000,
,,,-0.08095999807,0.80000,
,,,-0.08095199615,0.80000,
,,,-0.08094400167,0.80000,
,,,-0.08093599975,0.80000,
,,,-0.08092799783,0.80000,
,,,-0.08092000335,0.80000,
,,,-0.08091200143,0.80000,
,,,-0.08090399951,0.80000,
,,,-0.08089599758,0.60000,
,,,-0.08088800311,0.80000,
,,,-0.08088000119,0.80000,
,,,-0.08087199926,0.80000,
,,,-0.08086399734,0.80000,
,,,-0.08085600287,0.80000,
,,,-0.08084800094,0.60000,
,,,-0.08083999902,0.60000,
,,,-0.08083199710,0.80000,
,,,-0.08082400262,0.80000,
,,,-0.08081600070,0.80000,
,,,-0.08080799878,0.80000,
,,,-0.08079999685,0.80000,
,,,-0.08079200238,0.80000,
,,,-0.08078400046,0.60000,
,,,-0.08077599853,0.60000,
,,,-0.08076799661,0.80000,
,,,-0.08076000214,0.60000,
,,,-0.08075200021,0.80000,
,,,-0.08074399829,0.80000,
,,,-0.08073599637,0.80000,
,,,-0.08072800189,0.80000,
,,,-0.08071999997,0.80000,
,,,-0.08071199805,0.60000,
,,,-0.08070399612,0.80000,
,,,-0.08069600165,0.80000,
,,,-0.08068799973,0.80000,
,,,-0.08067999780,0.80000,
,,,-0.08067200333,0.80000,
,,,-0.08066400141,0.80000,
,,,-0.08065599948,0.80000,
,,,-0.08064799756,0.60000,
,,,-0.08064000309,0.80000,
,,,-0.08063200116,0.80000,
,,,-0.08062399924,0.80000,
,,,-0.08061599731,0.60000,
,,,-0.08060800284,0.80000,
,,,-0.08060000092,0.80000,
,,,-0.08059199899,0.80000,
,,,-0.08058399707,0.60000,
,,,-0.08057600260,0.80000,
,,,-0.08056800067,0.80000,
,,,-0.08055999875,0.80000,
,,,-0.08055199683,0.60000,
,,,-0.08054400235,0.80000,
,,,-0.08053600043,0.80000,
,,,-0.08052799851,0.80000,
,,,-0.08051999658,0.80000,
,,,-0.08051200211,0.60000,
,,,-0.08050400019,0.80000,
,,,-0.08049599826,0.80000,
,,,-0.08048799634,0.80000,
,,,-0.08048000187,0.60000,
,,,-0.08047199994,0.80000,
,,,-0.08046399802,0.80000,
,,,-0.08045599610,0.60000,
,,,-0.08044800162,0.80000,
,,,-0.08043999970,0.80000,
,,,-0.08043199778,0.80000,
,,,-0.08042400330,0.80000,
,,,-0.08041600138,0.60000,
,,,-0.08040799946,0.80000,
,,,-0.08039999753,0.80000,
,,,-0.08039200306,0.80000,
,,,-0.08038400114,0.80000,
,,,-0.08037599921,0.80000,
,,,-0.08036799729,0.80000,
,,,-0.08036000282,0.80000,
,,,-0.08035200089,0.60000,
,,,-0.08034399897,0.80000,
,,,-0.08033599705,0.80000,
,,,-0.08032800257,0.80000,
,,,-0.08032000065,0.80000,
,,,-0.08031199872,0.80000,
,,,-0.08030399680,0.80000,
,,,-0.08029600233,0.80000,
,,,-0.08028800040,0.60000,
,,,-0.08027999848,0.80000,
,,,-0.08027199656,0.80000,
,,,-0.08026400208,0.80000,
,,,-0.08025600016,0.80000,
,,,-0.08024799824,0.60000,
,,,-0.08023999631,0.60000,
,,,-0.08023200184,0.60000,
,,,-0.08022399992,0.60000,
,,,-0.08021599799,0.80000,
,,,-0.08020800352,0.80000,
,,,-0.08020000160,0.80000,
,,,-0.08019199967,0.60000,
,,,-0.08018399775,0.60000,
,,,-0.08017600328,0.80000,
,,,-0.08016800135,0.80000,
,,,-0.08015999943,0.60000,
,,,-0.08015199751,0.80000,
,,,-0.08014400303,0.80000,
,,,-0.08013600111,0.60000,
,,,-0.08012799919,0.60000,
,,,-0.08011999726,0.80000,
,,,-0.08011200279,0.80000,
,,,-0.08010400087,0.80000,
,,,-0.08009599894,0.80000,
,,,-0.08008799702,0.80000,
,,,-0.08008000255,0.80000,
,,,-0.08007200062,0.80000,
,,,-0.08006399870,0.80000,
,,,-0.08005599678,0.80000,
,,,-0.08004800230,0.60000,
,,,-0.08004000038,0.60000,
,,,-0.08003199846,0.80000,
,,,-0.08002399653,0.80000,
,,,-0.08001600206,0.80000,
,,,-0.08000800014,0.80000,
,,,-0.07999999821,0.80000,
,,,-0.07999199629,0.60000,
,,,-0.07998400182,0.80000,
,,,-0.07997599989,0.80000,
,,,-0.07996799797,0.80000,
,,,-0.07996000350,0.60000,
,,,-0.07995200157,0.80000,
,,,-0.07994399965,0.80000,
,,,-0.07993599772,0.80000,
,,,-0.07992800325,0.60000,
,,,-0.07992000133,4.00000,
,,,-0.07991199940,4.40000,
,,,-0.07990399748,4.80000,
,,,-0.07989600301,3.80000,
,,,-0.07988800108,4.80000,
,,,-0.07987999916,5.00000,
,,,-0.07987199724,3.80000,
,,,-0.07986400276,4.20000,
,,,-0.07985600084,4.80000,
,,,-0.07984799892,3.80000,
,,,-0.07983999699,3.40000,
,,,-0.07983200252,4.80000,
,,,-0.07982400060,4.60000,
,,,-0.07981599867,3.40000,
,,,-0.07980799675,4.00000,
,,,-0.07980000228,5.00000,
,,,-0.07979200035,3.00000,
,,,-0.07978399843,3.00000,
,,,-0.07977599651,4.60000,
,,,-0.07976800203,4.40000,
,,,-0.07976000011,4.00000,
,,,-0.07975199819,4.20000,
,,,-0.07974399626,4.60000,
,,,-0.07973600179,4.00000,
,,,-0.07972799987,4.00000,
,,,-0.07971999794,4.60000,
,,,-0.07971200347,4.40000,
,,,-0.07970400155,3.80000,
,,,-0.07969599962,4.00000,
,,,-0.07968799770,4.80000,
,,,-0.07968000323,3.80000,
,,,-0.07967200130,3.20000,
,,,-0.07966399938,4.20000,
,,,-0.07965599746,4.00000,
,,,-0.07964800298,3.00000,
,,,-0.07964000106,3.40000,
,,,-0.07963199914,4.60000,
,,,-0.07962399721,4.40000,
,,,-0.07961600274,3.60000,
,,,-0.07960800081,3.80000,
,,,-0.07959999889,4.60000,
,,,-0.07959199697,3.80000,
,,,-0.07958400249,3.40000,
,,,-0.07957600057,4.00000,
,,,-0.07956799865,4.40000,
,,,-0.07955999672,3.60000,
,,,-0.07955200225,4.40000,
,,,-0.07954400033,4.40000,
,,,-0.07953599840,3.80000,
,,,-0.07952799648,3.20000,
,,,-0.07952000201,3.00000,
,,,-0.07951200008,3.40000,
,,,-0.07950399816,3.20000,
,,,-0.07949599624,3.80000,
,,,-0.07948800176,4.60000,
,,,-0.07947999984,4.20000,
,,,-0.07947199792,3.20000,
,,,-0.07946400344,3.60000,
,,,-0.07945600152,4.60000,
,,,-0.07944799960,3.20000,
,,,-0.07943999767,3.20000,
,,,-0.07943200320,4.80000,
,,,-0.07942400128,4.40000,
,,,-0.07941599935,3.20000,
,,,-0.07940799743,3.80000,
,,,-0.07940000296,4.00000,
,,,-0.07939200103,2.80000,
,,,-0.07938399911,2.80000,
,,,-0.07937599719,3.80000,
,,,-0.07936800271,4.00000,
,,,-0.07936000079,3.20000,
,,,-0.07935199887,3.80000,
,,,-0.07934399694,4.60000,
,,,-0.07933600247,3.20000,
,,,-0.07932800055,3.00000,
,,,-0.07931999862,4.40000,
,,,-0.07931199670,3.20000,
,,,-0.07930400223,3.00000,
,,,-0.07929600030,3.80000,
,,,-0.07928799838,4.40000,
,,,-0.07927999645,3.60000,
,,,-0.07927200198,3.00000,
,,,-0.07926400006,3.40000,
,,,-0.07925599813,3.40000,
,,,-0.07924799621,2.60000,
,,,-0.07924000174,2.80000,
,,,-0.07923199981,4.40000,
,,,-0.07922399789,4.00000,
,,,-0.07921600342,3.00000,
,,,-0.07920800149,4.00000,
,,,-0.07919999957,3.60000,
,,,-0.07919199765,3.00000,
,,,-0.07918400317,3.20000,
,,,-0.07917600125,3.20000,
,,,-0.07916799933,4.00000,
,,,-0.07915999740,3.40000,
,,,-0.07915200293,3.80000,
,,,-0.07914400101,4.20000,
,,,-0.07913599908,3.20000,
,,,-0.07912799716,2.20000,
,,,-0.07912000269,3.20000,
,,,-0.07911200076,3.20000,
,,,-0.07910399884,3.00000,
,,,-0.07909599692,3.60000,
,,,-0.07908800244,4.00000,
,,,-0.07908000052,3.60000,
,,,-0.07907199860,3.20000,
,,,-0.07906399667,3.20000,
,,,-0.07905600220,4.00000,
,,,-0.07904800028,3.00000,
,,,-0.07903999835,2.80000,
,,,-0.07903199643,4.40000,
,,,-0.07902400196,3.60000,
,,,-0.07901600003,3.00000,
,,,-0.07900799811,3.40000,
,,,-0.07899999619,3.80000,
,,,-0.07899200171,2.20000,
,,,-0.07898399979,2.60000,
,,,-0.07897599787,3.60000,
,,,-0.07896800339,3.40000,
,,,-0.07896000147,3.00000,
,,,-0.07895199955,3.60000,
,,,-0.07894399762,4.00000,
,,,-0.07893600315,2.80000,
,,,-0.07892800122,2.80000,
,,,-0.07891999930,4.00000,
,,,-0.07891199738,3.20000,
,,,-0.07890400290,2.80000,
,,,-0.07889600098,3.40000,
,,,-0.07888799906,4.20000,
,,,-0.07887999713,3.20000,
,,,-0.07887200266,2.60000,
,,,-0.07886400074,3.60000,
,,,-0.07885599881,3.00000,
,,,-0.07884799689,2.20000,
,,,-0.07884000242,3.20000,
,,,-0.07883200049,4.00000,
,,,-0.07882399857,3.20000,
,,,-0.07881599665,3.00000,
,,,-0.07880800217,3.60000,
,,,-0.07880000025,3.60000,
,,,-0.07879199833,2.60000,
,,,-0.07878399640,2.80000,
,,,-0.07877600193,3.60000,
,,,-0.07876800001,3.60000,
,,,-0.07875999808,2.80000,
,,,-0.07875199616,3.60000,
,,,-0.07874400169,3.80000,
,,,-0.07873599976,3.00000,
,,,-0.07872799784,2.20000,
,,,-0.07872000337,3.00000,
,,,-0.07871200144,3.00000,
,,,-0.07870399952,3.00000,
,,,-0.07869599760,3.20000,
,,,-0.07868800312,3.40000,
,,,-0.07868000120,3.40000,
,,,-0.07867199928,2.60000,
,,,-0.07866399735,2.80000,
,,,-0.07865600288,3.40000,
,,,-0.07864800096,2.40000,
,,,-0.07863999903,3.00000,
,,,-0.07863199711,3.60000,
,,,-0.07862400264,2.80000,
,,,-0.07861600071,3.00000,
,,,-0.07860799879,3.20000,
,,,-0.07859999686,3.00000,
,,,-0.07859200239,2.20000,
,,,-0.07858400047,2.00000,
,,,-0.07857599854,3.20000,
,,,-0.07856799662,3.00000,
,,,-0.07856000215,2.20000,
,,,-0.07855200022,3.20000,
,,,-0.07854399830,3.60000,
,,,-0.07853599638,2.20000,
,,,-0.07852800190,2.20000,
,,,-0.07851999998,3.60000,
,,,-0.07851199806,3.00000,
,,,-0.07850399613,2.20000,
,,,-0.07849600166,2.80000,
,,,-0.07848799974,3.60000,
,,,-0.07847999781,3.00000,
,,,-0.07847200334,2.20000,
,,,-0.07846400142,2.60000,
,,,-0.07845599949,2.40000,
,,,-0.07844799757,2.00000,
,,,-0.07844000310,2.20000,
,,,-0.07843200117,3.40000,
,,,-0.07842399925,3.00000,
,,,-0.07841599733,2.60000,
,,,-0.07840800285,2.80000,
,,,-0.07840000093,2.60000,
,,,-0.07839199901,2.60000,
,,,-0.07838399708,2.60000,
,,,-0.07837600261,3.20000,
,,,-0.07836800069,2.80000,
,,,-0.07835999876,2.40000,
,,,-0.07835199684,3.20000,
,,,-0.07834400237,3.20000,
,,,-0.07833600044,2.00000,
,,,-0.07832799852,2.20000,
,,,-0.07831999660,2.80000,
,,,-0.07831200212,2.20000,
,,,-0.07830400020,2.00000,
,,,-0.07829599828,3.00000,
,,,-0.07828799635,3.60000,
,,,-0.07828000188,2.40000,
,,,-0.07827199996,2.00000,
,,,-0.07826399803,3.00000,
,,,-0.07825599611,3.00000,
,,,-0.07824800164,2.20000,
,,,-0.07823999971,2.40000,
,,,-0.07823199779,3.20000,
,,,-0.07822400331,2.60000,
,,,-0.07821600139,2.20000,
,,,-0.07820799947,2.80000,
,,,-0.07819999754,2.80000,
,,,-0.07819200307,2.00000,
,,,-0.07818400115,1.60000,
,,,-0.07817599922,2.60000,
,,,-0.07816799730,2.60000,
,,,-0.07816000283,2.40000,
,,,-0.07815200090,2.80000,
,,,-0.07814399898,3.20000,
,,,-0.07813599706,2.20000,
,,,-0.07812800258,2.00000,
,,,-0.07812000066,2.80000,
,,,-0.07811199874,2.60000,
,,,-0.07810399681,1.80000,
,,,-0.07809600234,2.80000,
,,,-0.07808800042,3.00000,
,,,-0.07807999849,2.20000,
,,,-0.07807199657,2.20000,
,,,-0.07806400210,2.40000,
,,,-0.07805600017,2.00000,
,,,-0.07804799825,1.40000,
,,,-0.07803999633,2.00000,
,,,-0.07803200185,3.00000,
,,,-0.07802399993,2.20000,
,,,-0.07801599801,2.00000,
,,,-0.07800799608,2.60000,
,,,-0.07800000161,2.60000,
,,,-0.07799199969,1.60000,
,,,-0.07798399776,2.20000,
,,,-0.07797600329,2.80000,
,,,-0.07796800137,2.40000,
,,,-0.07795999944,1.60000,
,,,-0.07795199752,2.40000,
,,,-0.07794400305,3.00000,
,,,-0.07793600112,1.60000,
,,,-0.07792799920,1.40000,
,,,-0.07791999727,2.40000,
,,,-0.07791200280,2.20000,
,,,-0.07790400088,1.40000,
,,,-0.07789599895,2.20000,
,,,-0.07788799703,3.00000,
,,,-0.07788000256,2.40000,
,,,-0.07787200063,1.80000,
,,,-0.07786399871,2.40000,
,,,-0.07785599679,2.00000,
,,,-0.07784800231,1.80000,
,,,-0.07784000039,2.20000,
,,,-0.07783199847,2.20000,
,,,-0.07782399654,2.40000,
,,,-0.07781600207,2.20000,
,,,-0.07780800015,2.40000,
,,,-0.07779999822,2.00000,
,,,-0.07779199630,1.40000,
,,,-0.07778400183,1.60000,
,,,-0.07777599990,2.20000,
,,,-0.07776799798,1.80000,
,,,-0.07776000351,1.80000,
,,,-0.07775200158,2.60000,
,,,-0.07774399966,2.40000,
,,,-0.07773599774,1.80000,
,,,-0.07772800326,1.60000,
,,,-0.07772000134,2.40000,
,,,-0.07771199942,2.40000,
,,,-0.07770399749,1.40000,
,,,-0.07769600302,2.40000,
,,,-0.07768800110,2.80000,
,,,-0.07767999917,1.80000,
,,,-0.07767199725,2.20000,
,,,-0.07766400278,3.00000,
,,,-0.07765600085,3.00000,
,,,-0.07764799893,3.60000,
,,,-0.07763999701,6.00000,
,,,-0.07763200253,7.00000,
,,,-0.07762400061,7.20000,
,,,-0.07761599869,7.60000,
,,,-0.07760799676,8.60000,
,,,-0.07760000229,9.40000,
,,,-0.07759200037,9.20000,
,,,-0.07758399844,3.80000,
,,,-0.07757599652,3.40000,
,,,-0.07756800205,1.40000,
,,,-0.07756000012,-1.00000,
,,,-0.07755199820,-1.60000,
,,,-0.07754399627,-1.40000,
,,,-0.07753600180,-1.60000,
,,,-0.07752799988,-1.80000,
,,,-0.07751999795,-1.80000,
,,,-0.07751200348,-1.60000,
,,,-0.07750400156,-1.80000,
,,,-0.07749599963,-1.80000,
,,,-0.07748799771,-1.80000,
,,,-0.07748000324,-1.80000,
,,,-0.07747200131,-1.80000,
,,,-0.07746399939,-1.60000,
,,,-0.07745599747,-1.80000,
,,,-0.07744800299,-1.60000,
,,,-0.07744000107,-1.80000,
,,,-0.07743199915,-1.80000,
,,,-0.07742399722,-1.80000,
,,,-0.07741600275,-1.80000,
,,,-0.07740800083,-1.80000,
,,,-0.07739999890,-1.80000,
,,,-0.07739199698,-1.80000,
,,,-0.07738400251,-1.80000,
,,,-0.07737600058,-1.80000,
,,,-0.07736799866,-1.80000,
,,,-0.07735999674,-1.80000,
,,,-0.07735200226,-1.80000,
,,,-0.07734400034,-1.60000,
,,,-0.07733599842,-1.80000,
,,,-0.07732799649,-2.00000,
,,,-0.07732000202,-1.80000,
,,,-0.07731200010,-1.80000,
,,,-0.07730399817,-1.80000,
,,,-0.07729599625,-1.80000,
,,,-0.07728800178,-1.80000,
,,,-0.07727999985,-1.80000,
,,,-0.07727199793,-1.80000,
,,,-0.07726400346,-1.80000,
,,,-0.07725600153,-1.80000,
,,,-0.07724799961,-1.80000,
,,,-0.07723999768,-1.80000,
,,,-0.07723200321,-1.80000,
,,,-0.07722400129,-1.80000,
,,,-0.07721599936,-1.80000,
,,,-0.07720799744,-1.60000,
,,,-0.07720000297,-1.80000,
,,,-0.07719200104,-1.80000,
,,,-0.07718399912,-1.80000,
,,,-0.07717599720,-1.60000,
,,,-0.07716800272,-1.80000,
,,,-0.07716000080,-1.80000,
,,,-0.07715199888,-1.60000,
,,,-0.07714399695,-1.80000,
,,,-0.07713600248,-1.60000,
,,,-0.07712800056,-1.60000,
,,,-0.07711999863,-1.60000,
,,,-0.07711199671,-1.80000,
,,,-0.07710400224,-1.60000,
,,,-0.07709600031,-1.60000,
,,,-0.07708799839,-1.80000,
,,,-0.07707999647,-1.80000,
,,,-0.07707200199,-1.60000,
,,,-0.07706400007,-1.80000,
,,,-0.07705599815,-1.80000,
,,,-0.07704799622,-1.80000,
,,,-0.07704000175,-1.60000,
,,,-0.07703199983,-1.60000,
,,,-0.07702399790,-1.80000,
,,,-0.07701600343,-1.60000,
,,,-0.07700800151,-1.60000,
,,,-0.07699999958,-1.80000,
,,,-0.07699199766,-1.60000,
,,,-0.07698400319,-1.60000,
,,,-0.07697600126,-1.60000,
,,,-0.07696799934,-1.60000,
,,,-0.07695999742,-1.60000,
,,,-0.07695200294,-1.60000,
,,,-0.07694400102,-1.60000,
,,,-0.07693599910,-1.60000,
,,,-0.07692799717,-1.60000,
,,,-0.07692000270,-1.60000,
,,,-0.07691200078,-1.80000,
,,,-0.07690399885,-1.60000,
,,,-0.07689599693,-1.60000,
,,,-0.07688800246,-1.60000,
,,,-0.07688000053,-1.80000,
,,,-0.07687199861,-1.60000,
,,,-0.07686399668,-1.60000,
,,,-0.07685600221,-1.60000,
,,,-0.07684800029,-1.40000,
,,,-0.07683999836,-1.40000,
,,,-0.07683199644,-1.80000,
,,,-0.07682400197,-1.60000,
,,,-0.07681600004,-1.60000,
,,,-0.07680799812,-1.60000,
,,,-0.07679999620,-1.60000,
,,,-0.07679200172,-1.60000,
,,,-0.07678399980,-1.60000,
,,,-0.07677599788,-1.60000,
,,,-0.07676800340,-1.60000,
,,,-0.07676000148,-1.60000,
,,,-0.07675199956,-1.60000,
,,,-0.07674399763,-1.60000,
,,,-0.07673600316,-1.60000,
,,,-0.07672800124,-1.40000,
,,,-0.07671999931,-1.60000,
,,,-0.07671199739,-1.40000,
,,,-0.07670400292,-1.00000,
,,,-0.07669600099,-1.60000,
,,,-0.07668799907,-1.60000,
,,,-0.07667999715,-1.00000,
,,,-0.07667200267,-0.80000,
,,,-0.07666400075,-1.60000,
,,,-0.07665599883,-1.60000,
,,,-0.07664799690,-1.40000,
,,,-0.07664000243,-1.60000,
,,,-0.07663200051,-1.80000,
,,,-0.07662399858,-1.60000,
,,,-0.07661599666,-0.80000,
,,,-0.07660800219,-1.00000,
,,,-0.07660000026,-1.60000,
,,,-0.07659199834,-1.40000,
,,,-0.07658399642,0.00,
,,,-0.07657600194,-0.80000,
,,,-0.07656800002,-1.60000,
,,,-0.07655999810,-1.20000,
,,,-0.07655199617,-0.80000,
,,,-0.07654400170,-1.40000,
,,,-0.07653599977,-1.40000,
,,,-0.07652799785,-1.60000,
,,,-0.07652000338,-1.60000,
,,,-0.07651200145,-1.60000,
,,,-0.07650399953,-1.60000,
,,,-0.07649599761,-1.60000,
,,,-0.07648800313,-1.60000,
,,,-0.07648000121,-1.20000,
,,,-0.07647199929,0.00,
,,,-0.07646399736,-1.20000,
,,,-0.07645600289,-1.40000,
,,,-0.07644800097,-1.00000,
,,,-0.07643999904,-1.20000,
,,,-0.07643199712,-1.80000,
,,,-0.07642400265,-1.20000,
,,,-0.07641600072,-1.00000,
,,,-0.07640799880,-1.20000,
,,,-0.07639999688,-1.40000,
,,,-0.07639200240,-1.40000,
,,,-0.07638400048,-1.60000,
,,,-0.07637599856,-1.60000,
,,,-0.07636799663,-1.60000,
,,,-0.07636000216,-1.00000,
,,,-0.07635200024,-1.00000,
,,,-0.07634399831,-1.60000,
,,,-0.07633599639,-1.00000,
,,,-0.07632800192,0.60000,
,,,-0.07631999999,-1.20000,
,,,-0.07631199807,-1.60000,
,,,-0.07630399615,-0.40000,
,,,-0.07629600167,-1.20000,
,,,-0.07628799975,-1.60000,
,,,-0.07627999783,-1.40000,
,,,-0.07627200335,-1.00000,
,,,-0.07626400143,-1.40000,
,,,-0.07625599951,-1.60000,
,,,-0.07624799758,-1.60000,
,,,-0.07624000311,-1.60000,
,,,-0.07623200119,-1.80000,
,,,-0.07622399926,-1.60000,
,,,-0.07621599734,-1.60000,
,,,-0.07620800287,-1.40000,
,,,-0.07620000094,-1.20000,
,,,-0.07619199902,-1.60000,
,,,-0.07618399709,-1.60000,
,,,-0.07617600262,-1.20000,
,,,-0.07616800070,-1.60000,
,,,-0.07615999877,-1.20000,
,,,-0.07615199685,-1.20000,
,,,-0.07614400238,-1.60000,
,,,-0.07613600045,-1.40000,
,,,-0.07612799853,-1.60000,
,,,-0.07611999661,-1.60000,
,,,-0.07611200213,-1.80000,
,,,-0.07610400021,-1.60000,
,,,-0.07609599829,-1.60000,
,,,-0.07608799636,-1.80000,
,,,-0.07608000189,-1.60000,
,,,-0.07607199997,-0.40000,
,,,-0.07606399804,-1.40000,
,,,-0.07605599612,-1.60000,
,,,-0.07604800165,-1.20000,
,,,-0.07603999972,-1.20000,
,,,-0.07603199780,-1.60000,
,,,-0.07602400333,-1.60000,
,,,-0.07601600140,-0.80000,
,,,-0.07600799948,-1.20000,
,,,-0.07599999756,-1.60000,
,,,-0.07599200308,-1.60000,
,,,-0.07598400116,-1.60000,
,,,-0.07597599924,-1.80000,
,,,-0.07596799731,-1.60000,
,,,-0.07596000284,-1.20000,
,,,-0.07595200092,-1.00000,
,,,-0.07594399899,-1.60000,
,,,-0.07593599707,-1.40000,
,,,-0.07592800260,1.20000,
,,,-0.07592000067,-1.00000,
,,,-0.07591199875,-1.60000,
,,,-0.07590399683,-1.40000,
,,,-0.07589600235,-1.20000,
,,,-0.07588800043,-1.40000,
,,,-0.07587999851,-1.60000,
,,,-0.07587199658,-1.00000,
,,,-0.07586400211,-1.40000,
,,,-0.07585600019,-1.60000,
,,,-0.07584799826,-1.60000,
,,,-0.07583999634,-1.60000,
,,,-0.07583200186,-1.60000,
,,,-0.07582399994,-1.40000,
,,,-0.07581599802,-1.40000,
,,,-0.07580799609,-1.40000,
,,,-0.07580000162,-1.60000,
,,,-0.07579199970,-1.40000,
,,,-0.07578399777,-1.00000,
,,,-0.07577600330,-1.40000,
,,,-0.07576800138,-1.60000,
,,,-0.07575999945,-1.00000,
,,,-0.07575199753,0.20000,
,,,-0.07574400306,-1.40000,
,,,-0.07573600113,-1.40000,
,,,-0.07572799921,-1.20000,
,,,-0.07571999729,-1.60000,
,,,-0.07571200281,-1.80000,
,,,-0.07570400089,-1.80000,
,,,-0.07569599897,-1.40000,
,,,-0.07568799704,-1.60000,
,,,-0.07568000257,-1.60000,
,,,-0.07567200065,-1.20000,
,,,-0.07566399872,-1.00000,
,,,-0.07565599680,-1.60000,
,,,-0.07564800233,-1.60000,
,,,-0.07564000040,-1.60000,
,,,-0.07563199848,-1.60000,
,,,-0.07562399656,-1.40000,
,,,-0.07561600208,-1.20000,
,,,-0.07560800016,-1.40000,
,,,-0.07559999824,-1.60000,
,,,-0.07559199631,-1.60000,
,,,-0.07558400184,-1.80000,
,,,-0.07557599992,-1.80000,
,,,-0.07556799799,-1.80000,
,,,-0.07556000352,-1.20000,
,,,-0.07555200160,-1.20000,
,,,-0.07554399967,-1.60000,
,,,-0.07553599775,-1.60000,
,,,-0.07552800328,-1.00000,
,,,-0.07552000135,-1.60000,
,,,-0.07551199943,-1.60000,
,,,-0.07550399750,-1.60000,
,,,-0.07549600303,-1.20000,
,,,-0.07548800111,-1.60000,
,,,-0.07547999918,-1.60000,
,,,-0.07547199726,-1.20000,
,,,-0.07546400279,-1.40000,
,,,-0.07545600086,-1.80000,
,,,-0.07544799894,-1.80000,
,,,-0.07543999702,-1.60000,
,,,-0.07543200254,-1.80000,
,,,-0.07542400062,-1.80000,
,,,-0.07541599870,-1.40000,
,,,-0.07540799677,-1.60000,
,,,-0.07540000230,-1.60000,
,,,-0.07539200038,-1.40000,
,,,-0.07538399845,-1.20000,
,,,-0.07537599653,-1.60000,
,,,-0.07536800206,-1.60000,
,,,-0.07536000013,-1.60000,
,,,-0.07535199821,0.00,
,,,-0.07534399629,-1.40000,
,,,-0.07533600181,-1.60000,
,,,-0.07532799989,-1.60000,
,,,-0.07531999797,-1.60000,
,,,-0.07531200349,-1.80000,
,,,-0.07530400157,-1.60000,
,,,-0.07529599965,-1.40000,
,,,-0.07528799772,-1.60000,
,,,-0.07528000325,-1.60000,
,,,-0.07527200133,-1.20000,
,,,-0.07526399940,-1.40000,
,,,-0.07525599748,-1.60000,
,,,-0.07524800301,-1.60000,
,,,-0.07524000108,-1.60000,
,,,-0.07523199916,-1.60000,
,,,-0.07522399724,-1.20000,
,,,-0.07521600276,-0.40000,
,,,-0.07520800084,-1.20000,
,,,-0.07519999892,-1.60000,
,,,-0.07519199699,-1.60000,
,,,-0.07518400252,-1.80000,
,,,-0.07517600060,-1.60000,
,,,-0.07516799867,-1.60000,
,,,-0.07515999675,-1.40000,
,,,-0.07515200227,-0.40000,
,,,-0.07514400035,-1.20000,
,,,-0.07513599843,-1.60000,
,,,-0.07512799650,-1.00000,
,,,-0.07512000203,0.00,
,,,-0.07511200011,-1.40000,
,,,-0.07510399818,-1.60000,
,,,-0.07509599626,-0.80000,
,,,-0.07508800179,-1.00000,
,,,-0.07507999986,-1.40000,
,,,-0.07507199794,-1.20000,
,,,-0.07506400347,-1.20000,
,,,-0.07505600154,-1.60000,
,,,-0.07504799962,-1.80000,
,,,-0.07503999770,-1.60000,
,,,-0.07503200322,-1.60000,
,,,-0.07502400130,-1.60000,
,,,-0.07501599938,-0.80000,
,,,-0.07500799745,0.00,
,,,-0.07500000298,-1.20000,
,,,-0.07499200106,-1.60000,
,,,-0.07498399913,-0.80000,
,,,-0.07497599721,-1.40000,
,,,-0.07496800274,-1.60000,
,,,-0.07496000081,-0.40000,
,,,-0.07495199889,4.00000,
,,,-0.07494399697,-0.20000,
,,,-0.07493600249,-1.60000,
,,,-0.07492800057,-1.40000,
,,,-0.07491999865,-1.60000,
,,,-0.07491199672,-1.80000,
,,,-0.07490400225,-1.60000,
,,,-0.07489600033,-1.20000,
,,,-0.07488799840,-1.40000,
,,,-0.07487999648,-1.60000,
,,,-0.07487200201,-1.20000,
,,,-0.07486400008,-1.20000,
,,,-0.07485599816,-1.60000,
,,,-0.07484799623,-1.40000,
,,,-0.07484000176,-1.60000,
,,,-0.07483199984,-1.60000,
,,,-0.07482399791,-1.40000,
,,,-0.07481600344,-1.40000,
,,,-0.07480800152,-1.40000,
,,,-0.07479999959,-1.60000,
,,,-0.07479199767,-1.80000,
,,,-0.07478400320,-1.60000,
,,,-0.07477600127,-1.80000,
,,,-0.07476799935,-1.80000,
,,,-0.07475999743,-1.60000,
,,,-0.07475200295,-1.20000,
,,,-0.07474400103,-1.40000,
,,,-0.07473599911,-1.60000,
,,,-0.07472799718,-1.60000,
,,,-0.07472000271,-1.40000,
,,,-0.07471200079,-1.60000,
,,,-0.07470399886,-1.60000,
,,,-0.07469599694,-1.40000,
,,,-0.07468800247,-1.40000,
,,,-0.07468000054,-1.60000,
,,,-0.07467199862,-1.60000,
,,,-0.07466399670,-1.60000,
,,,-0.07465600222,-1.60000,
,,,-0.07464800030,-2.00000,
,,,-0.07463999838,-2.00000,
,,,-0.07463199645,-1.60000,
,,,-0.07462400198,-1.60000,
,,,-0.07461600006,-1.20000,
,,,-0.07460799813,-1.40000,
,,,-0.07459999621,-1.60000,
,,,-0.07459200174,-1.60000,
,,,-0.07458399981,-1.40000,
,,,-0.07457599789,-1.60000,
,,,-0.07456800342,-1.80000,
,,,-0.07456000149,-1.60000,
,,,-0.07455199957,0.00,
,,,-0.07454399765,-1.20000,
,,,-0.07453600317,-1.60000,
,,,-0.07452800125,-1.60000,
,,,-0.07451999933,-1.60000,
,,,-0.07451199740,-1.80000,
,,,-0.07450400293,-1.80000,
,,,-0.07449600101,-1.80000,
,,,-0.07448799908,-1.60000,
,,,-0.07447999716,-1.80000,
,,,-0.07447200269,-1.60000,
,,,-0.07446400076,-1.80000,
,,,-0.07445599884,-1.80000,
,,,-0.07444799691,-1.60000,
,,,-0.07444000244,-1.60000,
,,,-0.07443200052,-1.80000,
,,,-0.07442399859,-1.80000,
,,,-0.07441599667,-1.40000,
,,,-0.07440800220,-1.40000,
,,,-0.07440000027,-1.60000,
,,,-0.07439199835,-1.80000,
,,,-0.07438399643,-1.60000,
,,,-0.07437600195,-1.80000,
,,,-0.07436800003,-2.00000,
,,,-0.07435999811,-1.80000,
,,,-0.07435199618,-1.20000,
,,,-0.07434400171,-1.60000,
,,,-0.07433599979,-1.80000,
,,,-0.07432799786,-1.60000,
,,,-0.07432000339,-1.60000,
,,,-0.07431200147,-1.80000,
,,,-0.07430399954,-1.80000,
,,,-0.07429599762,-1.80000,
,,,-0.07428800315,-1.60000,
,,,-0.07428000122,-1.60000,
,,,-0.07427199930,-1.80000,
,,,-0.07426399738,-1.60000,
,,,-0.07425600290,-1.80000,
,,,-0.07424800098,-1.80000,
,,,-0.07423999906,-1.80000,
,,,-0.07423199713,-1.80000,
,,,-0.07422400266,-2.00000,
,,,-0.07421600074,-1.80000,
,,,-0.07420799881,-1.60000,
,,,-0.07419999689,-1.80000,
,,,-0.07419200242,-1.80000,
,,,-0.07418400049,-1.60000,
,,,-0.07417599857,-1.60000,
,,,-0.07416799664,-1.80000,
,,,-0.07416000217,-1.80000,
,,,-0.07415200025,-1.60000,
,,,-0.07414399832,-1.80000,
,,,-0.07413599640,-2.00000,
,,,-0.07412800193,-1.80000,
,,,-0.07412000000,-1.80000,
,,,-0.07411199808,-2.00000,
,,,-0.07410399616,-2.00000,
,,,-0.07409600168,-1.80000,
,,,-0.07408799976,-1.80000,
,,,-0.07407999784,-1.80000,
,,,-0.07407200336,-1.80000,
,,,-0.07406400144,-1.60000,
,,,-0.07405599952,-2.00000,
,,,-0.07404799759,-1.80000,
,,,-0.07404000312,-1.80000,
,,,-0.07403200120,-2.00000,
,,,-0.07402399927,-1.80000,
,,,-0.07401599735,-1.60000,
,,,-0.07400800288,-1.60000,
,,,-0.07400000095,-1.80000,
,,,-0.07399199903,-2.00000,
,,,-0.07398399711,-1.80000,
,,,-0.07397600263,-1.80000,
,,,-0.07396800071,-2.00000,
,,,-0.07395999879,-2.00000,
,,,-0.07395199686,-1.60000,
,,,-0.07394400239,-1.60000,
,,,-0.07393600047,-2.00000,
,,,-0.07392799854,-1.80000,
,,,-0.07391999662,-1.80000,
,,,-0.07391200215,-1.80000,
,,,-0.07390400022,-1.80000,
,,,-0.07389599830,-1.80000,
,,,-0.07388799638,-1.80000,
,,,-0.07388000190,-2.00000,
,,,-0.07387199998,-1.80000,
,,,-0.07386399806,-1.80000,
,,,-0.07385599613,-1.80000,
,,,-0.07384800166,-1.80000,
,,,-0.07383999974,-1.80000,
,,,-0.07383199781,-1.80000,
,,,-0.07382400334,-2.00000,
,,,-0.07381600142,-2.00000,
,,,-0.07380799949,-1.60000,
,,,-0.07379999757,-1.80000,
,,,-0.07379200310,-2.00000,
,,,-0.07378400117,-1.60000,
,,,-0.07377599925,-1.60000,
,,,-0.07376799732,-2.00000,
,,,-0.07376000285,-1.80000,
,,,-0.07375200093,-1.60000,
,,,-0.07374399900,-1.80000,
,,,-0.07373599708,-2.00000,
,,,-0.07372800261,-1.80000,
,,,-0.07372000068,-1.80000,
,,,-0.07371199876,-2.00000,
,,,-0.07370399684,-1.80000,
,,,-0.07369600236,-1.80000,
,,,-0.07368800044,-2.00000,
,,,-0.07367999852,-2.00000,
,,,-0.07367199659,-2.00000,
,,,-0.07366400212,-1.80000,
,,,-0.07365600020,-2.00000,
,,,-0.07364799827,-2.00000,
,,,-0.07363999635,-1.80000,
,,,-0.07363200188,-2.00000,
,,,-0.07362399995,-2.00000,
,,,-0.07361599803,-1.80000,
,,,-0.07360799611,-1.80000,
,,,-0.07360000163,-2.00000,
,,,-0.07359199971,-2.00000,
,,,-0.07358399779,-1.80000,
,,,-0.07357600331,-1.80000,
,,,-0.07356800139,-2.00000,
,,,-0.07355999947,-1.80000,
,,,-0.07355199754,-1.80000,
,,,-0.07354400307,-1.80000,
,,,-0.07353600115,-2.00000,
,,,-0.07352799922,-1.80000,
,,,-0.07351999730,-1.80000,
,,,-0.07351200283,-2.00000,
,,,-0.07350400090,-1.80000,
,,,-0.07349599898,-2.00000,
,,,-0.07348799706,-2.00000,
,,,-0.07348000258,-1.80000,
,,,-0.07347200066,-2.00000,
,,,-0.07346399873,-2.00000,
,,,-0.07345599681,-1.80000,
,,,-0.07344800234,-2.00000,
,,,-0.07344000041,-2.00000,
,,,-0.07343199849,-2.00000,
,,,-0.07342399657,-1.80000,
,,,-0.07341600209,-2.00000,
,,,-0.07340800017,-1.80000,
,,,-0.07339999825,-2.00000,
,,,-0.07339199632,-2.00000,
,,,-0.07338400185,-2.00000,
,,,-0.07337599993,-1.80000,
,,,-0.07336799800,-2.00000,
,,,-0.07336000353,-1.80000,
,,,-0.07335200161,-1.80000,
,,,-0.07334399968,-2.00000,
,,,-0.07333599776,-2.00000,
,,,-0.07332800329,-2.00000,
,,,-0.07332000136,-2.00000,
,,,-0.07331199944,-2.00000,
,,,-0.07330399752,-2.00000,
,,,-0.07329600304,-2.00000,
,,,-0.07328800112,-2.00000,
,,,-0.07327999920,-1.80000,
,,,-0.07327199727,-1.80000,
,,,-0.07326400280,-2.00000,
,,,-0.07325600088,-2.00000,
,,,-0.07324799895,-2.00000,
,,,-0.07323999703,-2.00000,
,,,-0.07323200256,-2.00000,
,,,-0.07322400063,-1.80000,
,,,-0.07321599871,-1.80000,
,,,-0.07320799679,-2.00000,
,,,-0.07320000231,-2.00000,
,,,-0.07319200039,-2.00000,
,,,-0.07318399847,-2.00000,
,,,-0.07317599654,-1.80000,
,,,-0.07316800207,-2.00000,
,,,-0.07316000015,-2.00000,
,,,-0.07315199822,-2.00000,
,,,-0.07314399630,-2.00000,
,,,-0.07313600183,-1.80000,
,,,-0.07312799990,-2.00000,
,,,-0.07311999798,-2.00000,
,,,-0.07311200351,-2.00000,
,,,-0.07310400158,-2.00000,
,,,-0.07309599966,-1.80000,
,,,-0.07308799773,-2.00000,
,,,-0.07308000326,-2.00000,
,,,-0.07307200134,-1.80000,
,,,-0.07306399941,-1.80000,
,,,-0.07305599749,-2.00000,
,,,-0.07304800302,-2.00000,
,,,-0.07304000109,-2.00000,
,,,-0.07303199917,-2.00000,
,,,-0.07302399725,-1.80000,
,,,-0.07301600277,-2.00000,
,,,-0.07300800085,-1.80000,
,,,-0.07299999893,-2.00000,
,,,-0.07299199700,-1.80000,
,,,-0.07298400253,-2.00000,
,,,-0.07297600061,-2.00000,
,,,-0.07296799868,-2.00000,
,,,-0.07295999676,-1.80000,
,,,-0.07295200229,-2.00000,
,,,-0.07294400036,-2.00000,
,,,-0.07293599844,-2.00000,
,,,-0.07292799652,-2.00000,
,,,-0.07292000204,-2.00000,
,,,-0.07291200012,-2.00000,
,,,-0.07290399820,-1.80000,
,,,-0.07289599627,-2.00000,
,,,-0.07288800180,-2.00000,
,,,-0.07287999988,-2.00000,
,,,-0.07287199795,-2.00000,
,,,-0.07286400348,-2.00000,
,,,-0.07285600156,-2.00000,
,,,-0.07284799963,-2.20000,
,,,-0.07283999771,-2.00000,
,,,-0.07283200324,-2.00000,
,,,-0.07282400131,-2.20000,
,,,-0.07281599939,-2.40000,
,,,-0.07280799747,-2.00000,
,,,-0.07280000299,-2.60000,
,,,-0.07279200107,-11.60000,
,,,-0.07278399915,-12.80000,
,,,-0.07277599722,-9.20000,
,,,-0.07276800275,-12.80000,
,,,-0.07276000082,-13.00000,
,,,-0.07275199890,-13.00000,
,,,-0.07274399698,-12.80000,
,,,-0.07273600250,-12.80000,
,,,-0.07272800058,-12.80000,
,,,-0.07271999866,-12.80000,
,,,-0.07271199673,-13.00000,
,,,-0.07270400226,-12.80000,
,,,-0.07269600034,-13.00000,
,,,-0.07268799841,-13.00000,
,,,-0.07267999649,-13.00000,
,,,-0.07267200202,-12.80000,
,,,-0.07266400009,-13.00000,
,,,-0.07265599817,-13.00000,
,,,-0.07264799625,-13.00000,
,,,-0.07264000177,-12.80000,
,,,-0.07263199985,-13.00000,
,,,-0.07262399793,-12.80000,
,,,-0.07261600345,-12.80000,
,,,-0.07260800153,-12.80000,
,,,-0.07259999961,-12.80000,
,,,-0.07259199768,-12.80000,
,,,-0.07258400321,-13.00000,
,,,-0.07257600129,-12.80000,
,,,-0.07256799936,-13.00000,
,,,-0.07255999744,-12.80000,
,,,-0.07255200297,-13.00000,
,,,-0.07254400104,-12.80000,
,,,-0.07253599912,-13.00000,
,,,-0.07252799720,-13.00000,
,,,-0.07252000272,-13.00000,
,,,-0.07251200080,-13.00000,
,,,-0.07250399888,-12.80000,
,,,-0.07249599695,-13.00000,
,,,-0.07248800248,-13.00000,
,,,-0.07248000056,-12.80000,
,,,-0.07247199863,-12.80000,
,,,-0.07246399671,-12.80000,
,,,-0.07245600224,-13.00000,
,,,-0.07244800031,-13.00000,
,,,-0.07243999839,-12.80000,
,,,-0.07243199646,-12.80000,
,,,-0.07242400199,-13.00000,
,,,-0.07241600007,-12.80000,
,,,-0.07240799814,-12.80000,
,,,-0.07239999622,-13.00000,
,,,-0.07239200175,-13.00000,
,,,-0.07238399982,-12.80000,
,,,-0.07237599790,-13.00000,
,,,-0.07236800343,-13.00000,
,,,-0.07236000150,-12.80000,
,,,-0.07235199958,-12.80000,
,,,-0.07234399766,-12.80000,
,,,-0.07233600318,-12.80000,
,,,-0.07232800126,-12.80000,
,,,-0.07231999934,-13.00000,
,,,-0.07231199741,-12.80000,
,,,-0.07230400294,-12.80000,
,,,-0.07229600102,-12.80000,
,,,-0.07228799909,-12.80000,
,,,-0.07227999717,-12.80000,
,,,-0.07227200270,-13.00000,
,,,-0.07226400077,-13.00000,
,,,-0.07225599885,-13.00000,
,,,-0.07224799693,-12.80000,
,,,-0.07224000245,-13.00000,
,,,-0.07223200053,-12.80000,
,,,-0.07222399861,-13.00000,
,,,-0.07221599668,-12.80000,
,,,-0.07220800221,-13.00000,
,,,-0.07220000029,-12.80000,
,,,-0.07219199836,-13.00000,
,,,-0.07218399644,-13.00000,
,,,-0.07217600197,-13.00000,
,,,-0.07216800004,-12.80000,
,,,-0.07215999812,-12.80000,
,,,-0.07215199620,-12.80000,
,,,-0.07214400172,-12.80000,
,,,-0.07213599980,-12.80000,
,,,-0.07212799788,-13.00000,
,,,-0.07212000340,-13.00000,
,,,-0.07211200148,-13.00000,
,,,-0.07210399956,-13.00000,
,,,-0.07209599763,-12.80000,
,,,-0.07208800316,-12.80000,
,,,-0.07208000124,-12.80000,
,,,-0.07207199931,-13.00000,
,,,-0.07206399739,-13.00000,
,,,-0.07205600291,-12.80000,
,,,-0.07204800099,-12.80000,
,,,-0.07203999907,-12.80000,
,,,-0.07203199714,-12.80000,
,,,-0.07202400267,-13.00000,
,,,-0.07201600075,-12.60000,
,,,-0.07200799882,-12.80000,
,,,-0.07199999690,-13.00000,
,,,-0.07199200243,-12.80000,
,,,-0.07198400050,-12.80000,
,,,-0.07197599858,-13.00000,
,,,-0.07196799666,-13.00000,
,,,-0.07196000218,-12.80000,
,,,-0.07195200026,-12.80000,
,,,-0.07194399834,-13.00000,
,,,-0.07193599641,-13.00000,
,,,-0.07192800194,-12.80000,
,,,-0.07192000002,-12.80000,
,,,-0.07191199809,-12.80000,
,,,-0.07190399617,-12.80000,
,,,-0.07189600170,-13.00000,
,,,-0.07188799977,-12.80000,
,,,-0.07187999785,-12.80000,
,,,-0.07187200338,-12.80000,
,,,-0.07186400145,-12.80000,
,,,-0.07185599953,-12.80000,
,,,-0.07184799761,-12.80000,
,,,-0.07184000313,-13.00000,
,,,-0.07183200121,-13.00000,
,,,-0.07182399929,-12.80000,
,,,-0.07181599736,-13.00000,
,,,-0.07180800289,-12.80000,
,,,-0.07180000097,-12.80000,
,,,-0.07179199904,-13.00000,
,,,-0.07178399712,-12.80000,
,,,-0.07177600265,-12.80000,
,,,-0.07176800072,-12.80000,
,,,-0.07175999880,-12.80000,
,,,-0.07175199687,-12.80000,
,,,-0.07174400240,-12.60000,
,,,-0.07173600048,-12.80000,
,,,-0.07172799855,-12.80000,
,,,-0.07171999663,-12.80000,
,,,-0.07171200216,-12.80000,
,,,-0.07170400023,-12.80000,
,,,-0.07169599831,-12.80000,
,,,-0.07168799639,-12.80000,
,,,-0.07168000191,-13.00000,
,,,-0.07167199999,-12.80000,
,,,-0.07166399807,-13.00000,
,,,-0.07165599614,-12.80000,
,,,-0.07164800167,-12.80000,
,,,-0.07163999975,-12.80000,
,,,-0.07163199782,-13.00000,
,,,-0.07162400335,-13.00000,
,,,-0.07161600143,-12.80000,
,,,-0.07160799950,-12.80000,
,,,-0.07159999758,-13.00000,
,,,-0.07159200311,-12.80000,
,,,-0.07158400118,-12.80000,
,,,-0.07157599926,-13.00000,
,,,-0.07156799734,-12.60000,
,,,-0.07156000286,-12.80000,
,,,-0.07155200094,-12.80000,
,,,-0.07154399902,-12.80000,
,,,-0.07153599709,-12.80000,
,,,-0.07152800262,-12.80000,
,,,-0.07152000070,-12.80000,
,,,-0.07151199877,-13.00000,
,,,-0.07150399685,-12.80000,
,,,-0.07149600238,-12.80000,
,,,-0.07148800045,-12.80000,
,,,-0.07147999853,-13.00000,
,,,-0.07147199661,-13.00000,
,,,-0.07146400213,-12.80000,
,,,-0.07145600021,-12.80000,
,,,-0.07144799829,-12.80000,
,,,-0.07143999636,-12.80000,
,,,-0.07143200189,-13.00000,
,,,-0.07142399997,-12.80000,
,,,-0.07141599804,-13.00000,
,,,-0.07140799612,-13.00000,
,,,-0.07140000165,-12.80000,
,,,-0.07139199972,-13.00000,
,,,-0.07138399780,-12.80000,
,,,-0.07137600332,-12.80000,
,,,-0.07136800140,-12.80000,
,,,-0.07135999948,-12.80000,
,,,-0.07135199755,-12.80000,
,,,-0.07134400308,-13.00000,
,,,-0.07133600116,-12.80000,
,,,-0.07132799923,-13.00000,
,,,-0.07131999731,-13.00000,
,,,-0.07131200284,-13.00000,
,,,-0.07130400091,-12.80000,
,,,-0.07129599899,-12.80000,
,,,-0.07128799707,-12.80000,
,,,-0.07128000259,-12.80000,
,,,-0.07127200067,-12.80000,
,,,-0.07126399875,-12.80000,
,,,-0.07125599682,-13.00000,
,,,-0.07124800235,-12.80000,
,,,-0.07124000043,-13.00000,
,,,-0.07123199850,-12.80000,
,,,-0.07122399658,-12.80000,
,,,-0.07121600211,-12.80000,
,,,-0.07120800018,-13.00000,
,,,-0.07119999826,-13.00000,
,,,-0.07119199634,-12.80000,
,,,-0.07118400186,-12.80000,
,,,-0.07117599994,-12.80000,
,,,-0.07116799802,-13.00000,
,,,-0.07116000354,-13.00000,
,,,-0.07115200162,-12.80000,
,,,-0.07114399970,-13.00000,
,,,-0.07113599777,-12.80000,
,,,-0.07112800330,-12.80000,
,,,-0.07112000138,-12.80000,
,,,-0.07111199945,-13.00000,
,,,-0.07110399753,-13.00000,
,,,-0.07109600306,-12.80000,
,,,-0.07108800113,-13.00000,
,,,-0.07107999921,-13.00000,
,,,-0.07107199728,-13.00000,
,,,-0.07106400281,-12.80000,
,,,-0.07105600089,-12.80000,
,,,-0.07104799896,-12.80000,
,,,-0.07103999704,-13.00000,
,,,-0.07103200257,-12.80000,
,,,-0.07102400064,-12.80000,
,,,-0.07101599872,-13.00000,
,,,-0.07100799680,-12.80000,
,,,-0.07100000232,-12.80000,
,,,-0.07099200040,-13.00000,
,,,-0.07098399848,-13.00000,
,,,-0.07097599655,-13.00000,
,,,-0.07096800208,-12.80000,
,,,-0.07096000016,-12.80000,
,,,-0.07095199823,-13.00000,
,,,-0.07094399631,-13.00000,
,,,-0.07093600184,-12.80000,
,,,-0.07092799991,-13.00000,
,,,-0.07091999799,-12.80000,
,,,-0.07091200352,-12.80000,
,,,-0.07090400159,-12.80000,
,,,-0.07089599967,-12.80000,
,,,-0.07088799775,-13.00000,
,,,-0.07088000327,-13.00000,
,,,-0.07087200135,-12.80000,
,,,-0.07086399943,-12.80000,
,,,-0.07085599750,-13.00000,
,,,-0.07084800303,-12.80000,
,,,-0.07084000111,-12.80000,
,,,-0.07083199918,-12.80000,
,,,-0.07082399726,-13.00000,
,,,-0.07081600279,-13.00000,
,,,-0.07080800086,-13.00000,
,,,-0.07079999894,-12.80000,
,,,-0.07079199702,-12.80000,
,,,-0.07078400254,-12.80000,
,,,-0.07077600062,-12.80000,
,,,-0.07076799870,-13.00000,
,,,-0.07075999677,-12.80000,
,,,-0.07075200230,-13.00000,
,,,-0.07074400038,-13.00000,
,,,-0.07073599845,-12.80000,
,,,-0.07072799653,-12.80000,
,,,-0.07072000206,-12.80000,
,,,-0.07071200013,-12.80000,
,,,-0.07070399821,-12.80000,
,,,-0.07069599628,-12.80000,
,,,-0.07068800181,-12.80000,
,,,-0.07067999989,-13.00000,
,,,-0.07067199796,-12.60000,
,,,-0.07066400349,-13.00000,
,,,-0.07065600157,-12.80000,
,,,-0.07064799964,-13.00000,
,,,-0.07063999772,-12.80000,
,,,-0.07063200325,-13.00000,
,,,-0.07062400132,-13.00000,
,,,-0.07061599940,-12.80000,
,,,-0.07060799748,-12.80000,
,,,-0.07060000300,-12.80000,
,,,-0.07059200108,-12.80000,
,,,-0.07058399916,-13.00000,
,,,-0.07057599723,-12.80000,
,,,-0.07056800276,-12.80000,
,,,-0.07056000084,-12.80000,
,,,-0.07055199891,-12.80000,
,,,-0.07054399699,-12.80000,
,,,-0.07053600252,-13.00000,
,,,-0.07052800059,-12.80000,
,,,-0.07051999867,-12.80000,
,,,-0.07051199675,-13.00000,
,,,-0.07050400227,-12.80000,
,,,-0.07049600035,-13.00000,
,,,-0.07048799843,-12.80000,
,,,-0.07047999650,-12.80000,
,,,-0.07047200203,-13.00000,
,,,-0.07046400011,-12.80000,
,,,-0.07045599818,-13.00000,
,,,-0.07044799626,-13.00000,
,,,-0.07044000179,-12.80000,
,,,-0.07043199986,-13.00000,
,,,-0.07042399794,-13.00000,
,,,-0.07041600347,-12.80000,
,,,-0.07040800154,-12.80000,
,,,-0.07039999962,-12.80000,
,,,-0.07039199769,-13.00000,
,,,-0.07038400322,-13.00000,
,,,-0.07037600130,-13.00000,
,,,-0.07036799937,-12.80000,
,,,-0.07035999745,-12.80000,
,,,-0.07035200298,-12.80000,
,,,-0.07034400105,-12.80000,
,,,-0.07033599913,-13.00000,
,,,-0.07032799721,-12.80000,
,,,-0.07032000273,-13.00000,
,,,-0.07031200081,-12.80000,
,,,-0.07030399889,-12.80000,
,,,-0.07029599696,-12.80000,
,,,-0.07028800249,-12.80000,
,,,-0.07028000057,-12.80000,
,,,-0.07027199864,-12.80000,
,,,-0.07026399672,-13.00000,
,,,-0.07025600225,-12.80000,
,,,-0.07024800032,-12.80000,
,,,-0.07023999840,-13.00000,
,,,-0.07023199648,-12.80000,
,,,-0.07022400200,-12.80000,
,,,-0.07021600008,-12.80000,
,,,-0.07020799816,-13.00000,
,,,-0.07019999623,-12.80000,
,,,-0.07019200176,-12.80000,
,,,-0.07018399984,-12.80000,
,,,-0.07017599791,-12.80000,
,,,-0.07016800344,-12.80000,
,,,-0.07016000152,-12.80000,
,,,-0.07015199959,-13.00000,
,,,-0.07014399767,-12.80000,
,,,-0.07013600320,-13.00000,
,,,-0.07012800127,-12.80000,
,,,-0.07011999935,-12.80000,
,,,-0.07011199743,-12.80000,
,,,-0.07010400295,-12.80000,
,,,-0.07009600103,-12.80000,
,,,-0.07008799911,-12.80000,
,,,-0.07007999718,-12.80000,
,,,-0.07007200271,-13.00000,
,,,-0.07006400079,-13.00000,
,,,-0.07005599886,-12.80000,
,,,-0.07004799694,-13.00000,
,,,-0.07004000247,-12.80000,
,,,-0.07003200054,-12.80000,
,,,-0.07002399862,-13.00000,
,,,-0.07001599669,-12.80000,
,,,-0.07000800222,-13.00000,
,,,-0.07000000030,-12.80000,
,,,-0.06999199837,-3.60000,
,,,-0.06998399645,-4.00000,
,,,-0.06997600198,-12.40000,
,,,-0.06996800005,-0.20000,
,,,-0.06995999813,0.60000,
,,,-0.06995199621,0.40000,
,,,-0.06994400173,0.60000,
,,,-0.06993599981,0.40000,
,,,-0.06992799789,0.60000,
,,,-0.06992000341,0.40000,
,,,-0.06991200149,0.40000,
,,,-0.06990399957,0.40000,
,,,-0.06989599764,0.60000,
,,,-0.06988800317,0.40000,
,,,-0.06988000125,0.40000,
,,,-0.06987199932,0.40000,
,,,-0.06986399740,0.40000,
,,,-0.06985600293,0.40000,
,,,-0.06984800100,0.40000,
,,,-0.06983999908,0.60000,
,,,-0.06983199716,0.60000,
,,,-0.06982400268,0.40000,
,,,-0.06981600076,0.40000,
,,,-0.06980799884,0.60000,
,,,-0.06979999691,0.60000,
,,,-0.06979200244,0.60000,
,,,-0.06978400052,0.60000,
,,,-0.06977599859,0.40000,
,,,-0.06976799667,0.40000,
,,,-0.06976000220,0.40000,
,,,-0.06975200027,0.40000,
,,,-0.06974399835,0.40000,
,,,-0.06973599643,0.40000,
,,,-0.06972800195,0.40000,
,,,-0.06972000003,0.40000,
,,,-0.06971199811,0.60000,
,,,-0.06970399618,0.40000,
,,,-0.06969600171,0.60000,
,,,-0.06968799978,0.60000,
,,,-0.06967999786,0.40000,
,,,-0.06967200339,0.40000,
,,,-0.06966400146,0.40000,
,,,-0.06965599954,0.40000,
,,,-0.06964799762,0.40000,
,,,-0.06964000314,0.60000,
,,,-0.06963200122,0.60000,
,,,-0.06962399930,0.40000,
,,,-0.06961599737,0.40000,
,,,-0.06960800290,0.40000,
,,,-0.06960000098,0.40000,
,,,-0.06959199905,0.40000,
,,,-0.06958399713,0.60000,
,,,-0.06957600266,0.60000,
,,,-0.06956800073,0.60000,
,,,-0.06955999881,0.40000,
,,,-0.06955199689,0.40000,
,,,-0.06954400241,0.40000,
,,,-0.06953600049,0.60000,
,,,-0.06952799857,0.40000,
,,,-0.06951999664,0.40000,
,,,-0.06951200217,0.40000,
,,,-0.06950400025,0.60000,
,,,-0.06949599832,0.40000,
,,,-0.06948799640,0.40000,
,,,-0.06948000193,0.40000,
,,,-0.06947200000,0.40000,
,,,-0.06946399808,0.60000,
,,,-0.06945599616,0.40000,
,,,-0.06944800168,0.40000,
,,,-0.06943999976,0.40000,
,,,-0.06943199784,0.40000,
,,,-0.06942400336,0.60000,
,,,-0.06941600144,0.40000,
,,,-0.06940799952,0.40000,
,,,-0.06939999759,0.40000,
,,,-0.06939200312,0.60000,
,,,-0.06938400120,0.40000,
,,,-0.06937599927,0.40000,
,,,-0.06936799735,0.40000,
,,,-0.06936000288,0.40000,
,,,-0.06935200095,0.60000,
,,,-0.06934399903,0.60000,
,,,-0.06933599710,0.40000,
,,,-0.06932800263,0.40000,
,,,-0.06932000071,0.40000,
,,,-0.06931199878,0.60000,
,,,-0.06930399686,0.40000,
,,,-0.06929600239,0.40000,
,,,-0.06928800046,0.40000,
,,,-0.06927999854,0.40000,
,,,-0.06927199662,0.40000,
,,,-0.06926400214,0.40000,
,,,-0.06925600022,0.40000,
,,,-0.06924799830,0.40000,
,,,-0.06923999637,0.40000,
,,,-0.06923200190,0.40000,
,,,-0.06922399998,0.40000,
,,,-0.06921599805,0.40000,
,,,-0.06920799613,0.40000,
,,,-0.06920000166,0.40000,
,,,-0.06919199973,0.40000,
,,,-0.06918399781,0.40000,
,,,-0.06917600334,0.60000,
,,,-0.06916800141,0.40000,
,,,-0.06915999949,0.40000,
,,,-0.06915199757,0.40000,
,,,-0.06914400309,0.40000,
,,,-0.06913600117,0.40000,
,,,-0.06912799925,0.40000,
,,,-0.06911999732,0.40000,
,,,-0.06911200285,0.20000,
,,,-0.06910400093,0.40000,
,,,-0.06909599900,0.40000,
,,,-0.06908799708,0.40000,
,,,-0.06908000261,0.40000,
,,,-0.06907200068,0.40000,
,,,-0.06906399876,0.40000,
,,,-0.06905599684,0.40000,
,,,-0.06904800236,0.40000,
,,,-0.06904000044,0.40000,
,,,-0.06903199852,0.40000,
,,,-0.06902399659,0.40000,
,,,-0.06901600212,0.40000,
,,,-0.06900800020,0.60000,
,,,-0.06899999827,0.40000,
,,,-0.06899199635,0.40000,
,,,-0.06898400187,0.60000,
,,,-0.06897599995,0.40000,
,,,-0.06896799803,0.40000,
,,,-0.06895999610,0.60000,
,,,-0.06895200163,0.40000,
,,,-0.06894399971,0.40000,
,,,-0.06893599778,0.40000,
,,,-0.06892800331,0.40000,
,,,-0.06892000139,0.40000,
,,,-0.06891199946,0.40000,
,,,-0.06890399754,0.40000,
,,,-0.06889600307,0.40000,
,,,-0.06888800114,0.40000,
,,,-0.06887999922,0.40000,
,,,-0.06887199730,0.40000,
,,,-0.06886400282,0.40000,
,,,-0.06885600090,0.40000,
,,,-0.06884799898,0.40000,
,,,-0.06883999705,0.40000,
,,,-0.06883200258,0.40000,
,,,-0.06882400066,0.40000,
,,,-0.06881599873,0.40000,
,,,-0.06880799681,0.40000,
,,,-0.06880000234,0.40000,
,,,-0.06879200041,0.40000,
,,,-0.06878399849,0.40000,
,,,-0.06877599657,0.40000,
,,,-0.06876800209,0.40000,
,,,-0.06876000017,0.40000,
,,,-0.06875199825,0.60000,
,,,-0.06874399632,0.40000,
,,,-0.06873600185,0.40000,
,,,-0.06872799993,0.40000,
,,,-0.06871999800,0.40000,
,,,-0.06871200353,0.40000,
,,,-0.06870400161,0.40000,
,,,-0.06869599968,0.40000,
,,,-0.06868799776,0.40000,
,,,-0.06868000329,0.40000,
,,,-0.06867200136,0.40000,
,,,-0.06866399944,0.40000,
,,,-0.06865599751,0.40000,
,,,-0.06864800304,0.40000,
,,,-0.06864000112,0.40000,
,,,-0.06863199919,0.20000,
,,,-0.06862399727,0.40000,
,,,-0.06861600280,0.40000,
,,,-0.06860800087,0.60000,
,,,-0.06859999895,0.40000,
,,,-0.06859199703,0.40000,
,,,-0.06858400255,0.40000,
,,,-0.06857600063,0.40000,
,,,-0.06856799871,0.40000,
,,,-0.06855999678,0.40000,
,,,-0.06855200231,0.40000,
,,,-0.06854400039,0.40000,
,,,-0.06853599846,0.40000,
,,,-0.06852799654,0.40000,
,,,-0.06852000207,0.40000,
,,,-0.06851200014,0.20000,
,,,-0.06850399822,0.20000,
,,,-0.06849599630,0.40000,
,,,-0.06848800182,0.20000,
,,,-0.06847999990,0.40000,
,,,-0.06847199798,0.40000,
,,,-0.06846400350,0.40000,
,,,-0.06845600158,0.40000,
,,,-0.06844799966,0.40000,
,,,-0.06843999773,0.40000,
,,,-0.06843200326,0.40000,
,,,-0.06842400134,0.40000,
,,,-0.06841599941,0.40000,
,,,-0.06840799749,0.40000,
,,,-0.06840000302,0.40000,
,,,-0.06839200109,0.40000,
,,,-0.06838399917,0.20000,
,,,-0.06837599725,0.40000,
,,,-0.06836800277,0.20000,
,,,-0.06836000085,0.40000,
,,,-0.06835199893,0.60000,
,,,-0.06834399700,0.60000,
,,,-0.06833600253,0.40000,
,,,-0.06832800061,0.40000,
,,,-0.06831999868,0.40000,
,,,-0.06831199676,0.40000,
,,,-0.06830400229,0.40000,
,,,-0.06829600036,0.40000,
,,,-0.06828799844,0.40000,
,,,-0.06827999651,0.40000,
,,,-0.06827200204,0.40000,
,,,-0.06826400012,0.40000,
,,,-0.06825599819,0.40000,
,,,-0.06824799627,0.40000,
,,,-0.06824000180,0.40000,
,,,-0.06823199987,0.40000,
,,,-0.06822399795,0.40000,
,,,-0.06821600348,0.60000,
,,,-0.06820800155,0.40000,
,,,-0.06819999963,0.40000,
,,,-0.06819199771,0.40000,
,,,-0.06818400323,0.40000,
,,,-0.06817600131,0.40000,
,,,-0.06816799939,0.20000,
,,,-0.06815999746,0.20000,
,,,-0.06815200299,0.40000,
,,,-0.06814400107,0.20000,
,,,-0.06813599914,0.40000,
,,,-0.06812799722,0.40000,
,,,-0.06812000275,0.40000,
,,,-0.06811200082,0.40000,
,,,-0.06810399890,0.40000,
,,,-0.06809599698,0.40000,
,,,-0.06808800250,0.40000,
,,,-0.06808000058,0.40000,
,,,-0.06807199866,0.60000,
,,,-0.06806399673,0.40000,
,,,-0.06805600226,0.40000,
,,,-0.06804800034,0.40000,
,,,-0.06803999841,0.40000,
,,,-0.06803199649,0.40000,
,,,-0.06802400202,0.40000,
,,,-0.06801600009,0.40000,
,,,-0.06800799817,0.40000,
,,,-0.06799999624,0.40000,
,,,-0.06799200177,0.40000,
,,,-0.06798399985,0.40000,
,,,-0.06797599792,0.40000,
,,,-0.06796800345,0.40000,
,,,-0.06796000153,0.40000,
,,,-0.06795199960,0.40000,
,,,-0.06794399768,0.20000,
,,,-0.06793600321,0.40000,
,,,-0.06792800128,0.20000,
,,,-0.06791999936,0.20000,
,,,-0.06791199744,0.40000,
,,,-0.06790400296,0.40000,
,,,-0.06789600104,0.20000,
,,,-0.06788799912,0.40000,
,,,-0.06787999719,0.40000,
,,,-0.06787200272,0.40000,
,,,-0.06786400080,0.40000,
,,,-0.06785599887,0.40000,
,,,-0.06784799695,0.40000,
,,,-0.06784000248,0.40000,
,,,-0.06783200055,0.60000,
,,,-0.06782399863,0.20000,
,,,-0.06781599671,0.40000,
,,,-0.06780800223,0.40000,
,,,-0.06780000031,0.60000,
,,,-0.06779199839,0.20000,
,,,-0.06778399646,0.40000,
,,,-0.06777600199,0.40000,
,,,-0.06776800007,0.40000,
,,,-0.06775999814,0.20000,
,,,-0.06775199622,0.40000,
,,,-0.06774400175,0.40000,
,,,-0.06773599982,0.40000,
,,,-0.06772799790,0.40000,
,,,-0.06772000343,0.40000,
,,,-0.06771200150,0.20000,
,,,-0.06770399958,0.40000,
,,,-0.06769599766,0.40000,
,,,-0.06768800318,0.40000,
,,,-0.06768000126,0.40000,
,,,-0.06767199934,0.40000,
,,,-0.06766399741,0.20000,
,,,-0.06765600294,0.40000,
,,,-0.06764800102,0.40000,
,,,-0.06763999909,0.40000,
,,,-0.06763199717,0.40000,
,,,-0.06762400270,0.20000,
,,,-0.06761600077,0.40000,
,,,-0.06760799885,0.40000,
,,,-0.06759999692,0.40000,
,,,-0.06759200245,0.40000,
,,,-0.06758400053,0.40000,
,,,-0.06757599860,0.40000,
,,,-0.06756799668,0.40000,
,,,-0.06756000221,0.40000,
,,,-0.06755200028,0.40000,
,,,-0.06754399836,0.20000,
,,,-0.06753599644,0.40000,
,,,-0.06752800196,0.40000,
,,,-0.06752000004,0.40000,
,,,-0.06751199812,0.40000,
,,,-0.06750399619,0.40000,
,,,-0.06749600172,0.40000,
,,,-0.06748799980,0.20000,
,,,-0.06747999787,0.40000,
,,,-0.06747200340,0.40000,
,,,-0.06746400148,0.20000,
,,,-0.06745599955,0.40000,
,,,-0.06744799763,0.40000,
,,,-0.06744000316,0.40000,
,,,-0.06743200123,0.40000,
,,,-0.06742399931,0.40000,
,,,-0.06741599739,0.40000,
,,,-0.06740800291,0.40000,
,,,-0.06740000099,0.40000,
,,,-0.06739199907,0.40000,
,,,-0.06738399714,0.40000,
,,,-0.06737600267,0.40000,
,,,-0.06736800075,0.40000,
,,,-0.06735999882,0.40000,
,,,-0.06735199690,0.40000,
,,,-0.06734400243,0.40000,
,,,-0.06733600050,0.40000,
,,,-0.06732799858,0.40000,
,,,-0.06731999665,0.40000,
,,,-0.06731200218,0.40000,
,,,-0.06730400026,0.40000,
,,,-0.06729599833,0.20000,
,,,-0.06728799641,0.40000,
,,,-0.06728000194,0.40000,
,,,-0.06727200001,0.40000,
,,,-0.06726399809,0.40000,
,,,-0.06725599617,0.40000,
,,,-0.06724800169,0.40000,
,,,-0.06723999977,0.40000,
,,,-0.06723199785,0.40000,
,,,-0.06722400337,0.40000,
,,,-0.06721600145,0.40000,
,,,-0.06720799953,0.40000,
,,,-0.06719999760,0.40000,
,,,-0.06719200313,0.40000,
,,,-0.06718400121,0.40000,
,,,-0.06717599928,0.40000,
,,,-0.06716799736,0.40000,
,,,-0.06716000289,0.40000,
,,,-0.06715200096,0.40000,
,,,-0.06714399904,0.40000,
,,,-0.06713599712,0.40000,
,,,-0.06712800264,0.40000,
,,,-0.06712000072,0.40000,
,,,-0.06711199880,0.40000,
,,,-0.06710399687,0.40000,
,,,-0.06709600240,0.40000,
,,,-0.06708800048,0.40000,
,,,-0.06707999855,0.40000,
,,,-0.06707199663,0.40000,
,,,-0.06706400216,0.40000,
,,,-0.06705600023,0.40000,
,,,-0.06704799831,0.40000,
,,,-0.06703999639,0.40000,
,,,-0.06703200191,0.40000,
,,,-0.06702399999,0.40000,
,,,-0.06701599807,0.40000,
,,,-0.06700799614,0.40000,
,,,-0.06700000167,0.40000,
,,,-0.06699199975,0.40000,
,,,-0.06698399782,0.40000,
,,,-0.06697600335,0.40000,
,,,-0.06696800143,0.40000,
,,,-0.06695999950,0.60000,
,,,-0.06695199758,0.40000,
,,,-0.06694400311,0.40000,
,,,-0.06693600118,0.40000,
,,,-0.06692799926,0.40000,
,,,-0.06691999733,0.20000,
,,,-0.06691200286,0.40000,
,,,-0.06690400094,0.40000,
,,,-0.06689599901,0.40000,
,,,-0.06688799709,0.40000,
,,,-0.06688000262,0.40000,
,,,-0.06687200069,0.40000,
,,,-0.06686399877,0.40000,
,,,-0.06685599685,0.40000,
,,,-0.06684800237,0.40000,
,,,-0.06684000045,0.40000,
,,,-0.06683199853,0.40000,
,,,-0.06682399660,0.40000,
,,,-0.06681600213,0.60000,
,,,-0.06680800021,0.40000,
,,,-0.06679999828,0.40000,
,,,-0.06679199636,0.60000,
,,,-0.06678400189,0.60000,
,,,-0.06677599996,0.60000,
,,,-0.06676799804,0.40000,
,,,-0.06675999612,0.40000,
,,,-0.06675200164,0.40000,
,,,-0.06674399972,0.40000,
,,,-0.06673599780,0.40000,
,,,-0.06672800332,0.40000,
,,,-0.06672000140,0.60000,
,,,-0.06671199948,0.40000,
,,,-0.06670399755,0.40000,
,,,-0.06669600308,0.40000,
,,,-0.06668800116,0.40000,
,,,-0.06667999923,0.40000,
,,,-0.06667199731,0.40000,
,,,-0.06666400284,0.40000,
,,,-0.06665600091,0.40000,
,,,-0.06664799899,0.40000,
,,,-0.06663999707,0.60000,
,,,-0.06663200259,0.40000,
,,,-0.06662400067,0.40000,
,,,-0.06661599874,0.40000,
,,,-0.06660799682,0.40000,
,,,-0.06660000235,0.60000,
,,,-0.06659200042,0.40000,
,,,-0.06658399850,0.40000,
,,,-0.06657599658,0.40000,
,,,-0.06656800210,0.40000,
,,,-0.06656000018,0.40000,
,,,-0.06655199826,0.40000,
,,,-0.06654399633,0.40000,
,,,-0.06653600186,0.40000,
,,,-0.06652799994,0.40000,
,,,-0.06651999801,0.40000,
,,,-0.06651200354,0.40000,
,,,-0.06650400162,0.60000,
,,,-0.06649599969,0.40000,
,,,-0.06648799777,0.40000,
,,,-0.06648000330,0.40000,
,,,-0.06647200137,0.40000,
,,,-0.06646399945,0.40000,
,,,-0.06645599753,0.40000,
,,,-0.06644800305,0.40000,
,,,-0.06644000113,0.60000,
,,,-0.06643199921,0.40000,
,,,-0.06642399728,0.40000,
,,,-0.06641600281,0.40000,
,,,-0.06640800089,0.40000,
,,,-0.06639999896,0.40000,
,,,-0.06639199704,0.40000,
,,,-0.06638400257,0.40000,
,,,-0.06637600064,0.40000,
,,,-0.06636799872,0.40000,
,,,-0.06635999680,0.40000,
,,,-0.06635200232,0.40000,
,,,-0.06634400040,0.40000,
,,,-0.06633599848,0.40000,
,,,-0.06632799655,0.40000,
,,,-0.06632000208,0.40000,
,,,-0.06631200016,0.40000,
,,,-0.06630399823,0.40000,
,,,-0.06629599631,0.40000,
,,,-0.06628800184,0.40000,
,,,-0.06627999991,0.60000,
,,,-0.06627199799,0.40000,
,,,-0.06626400352,0.40000,
,,,-0.06625600159,0.40000,
,,,-0.06624799967,0.60000,
,,,-0.06623999774,0.40000,
,,,-0.06623200327,0.40000,
,,,-0.06622400135,0.40000,
,,,-0.06621599942,0.60000,
,,,-0.06620799750,0.40000,
,,,-0.06620000303,0.60000,
,,,-0.06619200110,0.40000,
,,,-0.06618399918,0.40000,
,,,-0.06617599726,0.40000,
,,,-0.06616800278,0.40000,
,,,-0.06616000086,0.40000,
,,,-0.06615199894,0.60000,
,,,-0.06614399701,0.40000,
,,,-0.06613600254,0.60000,
,,,-0.06612800062,0.40000,
,,,-0.06611999869,0.40000,
,,,-0.06611199677,0.40000,
,,,-0.06610400230,0.40000,
,,,-0.06609600037,0.40000,
,,,-0.06608799845,0.40000,
,,,-0.06607999653,0.40000,
,,,-0.06607200205,0.40000,
,,,-0.06606400013,0.40000,
,,,-0.06605599821,0.40000,
,,,-0.06604799628,0.40000,
,,,-0.06604000181,0.40000,
,,,-0.06603199989,0.40000,
,,,-0.06602399796,0.60000,
,,,-0.06601600349,0.60000,
,,,-0.06600800157,0.40000,
,,,-0.06599999964,0.40000,
,,,-0.06599199772,0.40000,
,,,-0.06598400325,0.40000,
,,,-0.06597600132,0.60000,
,,,-0.06596799940,0.40000,
,,,-0.06595999748,0.60000,
,,,-0.06595200300,0.40000,
,,,-0.06594400108,0.40000,
,,,-0.06593599916,0.60000,
,,,-0.06592799723,0.60000,
,,,-0.06592000276,0.40000,
,,,-0.06591200083,0.60000,
,,,-0.06590399891,0.40000,
,,,-0.06589599699,0.40000,
,,,-0.06588800251,0.60000,
,,,-0.06588000059,0.40000,
,,,-0.06587199867,0.60000,
,,,-0.06586399674,0.60000,
,,,-0.06585600227,0.60000,
,,,-0.06584800035,0.60000,
,,,-0.06583999842,0.60000,
,,,-0.06583199650,0.40000,
,,,-0.06582400203,0.40000,
,,,-0.06581600010,0.40000,
,,,-0.06580799818,0.40000,
,,,-0.06579999626,0.60000,
,,,-0.06579200178,0.60000,
,,,-0.06578399986,0.60000,
,,,-0.06577599794,0.40000,
,,,-0.06576800346,0.60000,
,,,-0.06576000154,0.60000,
,,,-0.06575199962,0.40000,
,,,-0.06574399769,0.40000,
,,,-0.06573600322,0.60000,
,,,-0.06572800130,0.40000,
,,,-0.06571999937,0.60000,
,,,-0.06571199745,0.40000,
,,,-0.06570400298,0.60000,
,,,-0.06569600105,0.40000,
,,,-0.06568799913,0.60000,
,,,-0.06567999721,0.40000,
,,,-0.06567200273,0.60000,
,,,-0.06566400081,0.60000,
,,,-0.06565599889,0.40000,
,,,-0.06564799696,0.60000,
,,,-0.06564000249,0.40000,
,,,-0.06563200057,0.40000,
,,,-0.06562399864,0.40000,
,,,-0.06561599672,0.60000,
,,,-0.06560800225,0.40000,
,,,-0.06560000032,0.40000,
,,,-0.06559199840,0.40000,
,,,-0.06558399647,0.40000,
,,,-0.06557600200,0.60000,
,,,-0.06556800008,0.60000,
,,,-0.06555999815,0.60000,
,,,-0.06555199623,0.60000,
,,,-0.06554400176,0.60000,
,,,-0.06553599983,0.60000,
,,,-0.06552799791,0.40000,
,,,-0.06552000344,0.40000,
,,,-0.06551200151,0.60000,
,,,-0.06550399959,0.60000,
,,,-0.06549599767,0.40000,
,,,-0.06548800319,0.60000,
,,,-0.06548000127,0.60000,
,,,-0.06547199935,0.40000,
,,,-0.06546399742,0.60000,
,,,-0.06545600295,0.60000,
,,,-0.06544800103,0.40000,
,,,-0.06543999910,0.60000,
,,,-0.06543199718,0.60000,
,,,-0.06542400271,0.60000,
,,,-0.06541600078,0.40000,
,,,-0.06540799886,0.40000,
,,,-0.06539999694,0.40000,
,,,-0.06539200246,0.60000,
,,,-0.06538400054,0.40000,
,,,-0.06537599862,0.60000,
,,,-0.06536799669,0.40000,
,,,-0.06536000222,0.60000,
,,,-0.06535200030,0.40000,
,,,-0.06534399837,0.60000,
,,,-0.06533599645,0.60000,
,,,-0.06532800198,0.60000,
,,,-0.06532000005,0.60000,
,,,-0.06531199813,0.40000,
,,,-0.06530399621,0.60000,
,,,-0.06529600173,0.60000,
,,,-0.06528799981,0.60000,
,,,-0.06527999789,0.60000,
,,,-0.06527200341,0.40000,
,,,-0.06526400149,0.40000,
,,,-0.06525599957,0.60000,
,,,-0.06524799764,0.60000,
,,,-0.06524000317,0.60000,
,,,-0.06523200125,0.40000,
,,,-0.06522399932,0.60000,
,,,-0.06521599740,0.60000,
,,,-0.06520800292,0.60000,
,,,-0.06520000100,0.60000,
,,,-0.06519199908,0.60000,
,,,-0.06518399715,0.60000,
,,,-0.06517600268,0.60000,
,,,-0.06516800076,0.40000,
,,,-0.06515999883,0.60000,
,,,-0.06515199691,0.60000,
,,,-0.06514400244,0.60000,
,,,-0.06513600051,0.40000,
,,,-0.06512799859,0.60000,
,,,-0.06511999667,0.60000,
,,,-0.06511200219,0.40000,
,,,-0.06510400027,0.60000,
,,,-0.06509599835,0.60000,
,,,-0.06508799642,0.60000,
,,,-0.06508000195,0.60000,
,,,-0.06507200003,0.60000,
,,,-0.06506399810,0.40000,
,,,-0.06505599618,0.60000,
,,,-0.06504800171,0.40000,
,,,-0.06503999978,0.60000,
,,,-0.06503199786,0.60000,
,,,-0.06502400339,0.60000,
,,,-0.06501600146,0.60000,
,,,-0.06500799954,0.60000,
,,,-0.06499999762,0.40000,
,,,-0.06499200314,0.40000,
,,,-0.06498400122,0.60000,
,,,-0.06497599930,0.60000,
,,,-0.06496799737,0.60000,
,,,-0.06496000290,0.60000,
,,,-0.06495200098,0.60000,
,,,-0.06494399905,0.40000,
,,,-0.06493599713,0.60000,
,,,-0.06492800266,0.60000,
,,,-0.06492000073,0.60000,
,,,-0.06491199881,0.60000,
,,,-0.06490399688,0.60000,
,,,-0.06489600241,0.60000,
,,,-0.06488800049,0.60000,
,,,-0.06487999856,0.60000,
,,,-0.06487199664,0.60000,
,,,-0.06486400217,0.60000,
,,,-0.06485600024,0.60000,
,,,-0.06484799832,0.40000,
,,,-0.06483999640,0.60000,
,,,-0.06483200192,0.40000,
,,,-0.06482400000,0.60000,
,,,-0.06481599808,0.40000,
,,,-0.06480799615,0.60000,
,,,-0.06480000168,0.60000,
,,,-0.06479199976,0.60000,
,,,-0.06478399783,0.60000,
,,,-0.06477600336,0.40000,
,,,-0.06476800144,0.60000,
,,,-0.06475999951,0.60000,
,,,-0.06475199759,0.60000,
,,,-0.06474400312,0.60000,
,,,-0.06473600119,0.60000,
,,,-0.06472799927,0.60000,
,,,-0.06471999735,0.60000,
,,,-0.06471200287,0.60000,
,,,-0.06470400095,0.60000,
,,,-0.06469599903,0.60000,
,,,-0.06468799710,0.60000,
,,,-0.06468000263,0.60000,
,,,-0.06467200071,0.60000,
,,,-0.06466399878,0.60000,
,,,-0.06465599686,0.60000,
,,,-0.06464800239,0.60000,
,,,-0.06464000046,0.60000,
,,,-0.06463199854,0.60000,
,,,-0.06462399662,0.60000,
,,,-0.06461600214,0.40000,
,,,-0.06460800022,0.60000,
,,,-0.06459999830,0.60000,
,,,-0.06459199637,0.60000,
,,,-0.06458400190,0.60000,
,,,-0.06457599998,0.80000,
,,,-0.06456799805,0.60000,
,,,-0.06455999613,0.60000,
,,,-0.06455200166,0.60000,
,,,-0.06454399973,0.60000,
,,,-0.06453599781,0.60000,
,,,-0.06452800333,0.60000,
,,,-0.06452000141,0.60000,
,,,-0.06451199949,0.60000,
,,,-0.06450399756,0.60000,
,,,-0.06449600309,0.60000,
,,,-0.06448800117,0.60000,
,,,-0.06447999924,0.60000,
,,,-0.06447199732,0.60000,
,,,-0.06446400285,0.60000,
,,,-0.06445600092,0.60000,
,,,-0.06444799900,0.60000,
,,,-0.06443999708,0.60000,
,,,-0.06443200260,0.60000,
,,,-0.06442400068,0.60000,
,,,-0.06441599876,0.60000,
,,,-0.06440799683,0.60000,
,,,-0.06440000236,0.60000,
,,,-0.06439200044,0.60000,
,,,-0.06438399851,0.60000,
,,,-0.06437599659,0.60000,
,,,-0.06436800212,0.60000,
,,,-0.06436000019,0.80000,
,,,-0.06435199827,0.60000,
,,,-0.06434399635,0.60000,
,,,-0.06433600187,0.60000,
,,,-0.06432799995,0.60000,
,,,-0.06431999803,0.60000,
,,,-0.06431200355,0.60000,
,,,-0.06430400163,0.60000,
,,,-0.06429599971,0.60000,
,,,-0.06428799778,0.60000,
,,,-0.06428000331,0.60000,
,,,-0.06427200139,0.60000,
,,,-0.06426399946,0.60000,
,,,-0.06425599754,0.60000,
,,,-0.06424800307,0.60000,
,,,-0.06424000114,0.80000,
,,,-0.06423199922,0.60000,
,,,-0.06422399729,0.60000,
,,,-0.06421600282,0.60000,
,,,-0.06420800090,0.60000,
,,,-0.06419999897,0.60000,
,,,-0.06419199705,0.60000,
,,,-0.06418400258,0.60000,
,,,-0.06417600065,0.60000,
,,,-0.06416799873,0.60000,
,,,-0.06415999681,0.60000,
,,,-0.06415200233,0.60000,
,,,-0.06414400041,0.60000,
,,,-0.06413599849,0.60000,
,,,-0.06412799656,0.60000,
,,,-0.06412000209,0.60000,
,,,-0.06411200017,0.60000,
,,,-0.06410399824,0.80000,
,,,-0.06409599632,0.60000,
,,,-0.06408800185,0.60000,
,,,-0.06407999992,0.60000,
,,,-0.06407199800,0.60000,
,,,-0.06406400353,0.80000,
,,,-0.06405600160,0.60000,
,,,-0.06404799968,0.60000,
,,,-0.06403999776,0.60000,
,,,-0.06403200328,0.60000,
,,,-0.06402400136,0.60000,
,,,-0.06401599944,0.60000,
,,,-0.06400799751,0.60000,
,,,-0.06400000304,0.60000,
,,,-0.06399200112,0.60000,
,,,-0.06398399919,0.60000,
,,,-0.06397599727,0.60000,
,,,-0.06396800280,0.60000,
,,,-0.06396000087,0.60000,
,,,-0.06395199895,0.80000,
,,,-0.06394399703,0.60000,
,,,-0.06393600255,0.60000,
,,,-0.06392800063,0.60000,
,,,-0.06391999871,0.60000,
,,,-0.06391199678,0.60000,
,,,-0.06390400231,0.60000,
,,,-0.06389600039,0.60000,
,,,-0.06388799846,0.80000,
,,,-0.06387999654,0.60000,
,,,-0.06387200207,0.60000,
,,,-0.06386400014,0.60000,
,,,-0.06385599822,0.60000,
,,,-0.06384799629,0.60000,
,,,-0.06384000182,0.80000,
,,,-0.06383199990,0.60000,
,,,-0.06382399797,0.60000,
,,,-0.06381600350,0.60000,
,,,-0.06380800158,0.80000,
,,,-0.06379999965,0.60000,
,,,-0.06379199773,0.60000,
,,,-0.06378400326,0.60000,
,,,-0.06377600133,0.80000,
,,,-0.06376799941,0.60000,
,,,-0.06375999749,0.60000,
,,,-0.06375200301,0.60000,
,,,-0.06374400109,0.60000,
,,,-0.06373599917,0.60000,
,,,-0.06372799724,0.60000,
,,,-0.06372000277,0.80000,
,,,-0.06371200085,0.60000,
,,,-0.06370399892,0.60000,
,,,-0.06369599700,0.60000,
,,,-0.06368800253,0.60000,
,,,-0.06368000060,0.80000,
,,,-0.06367199868,0.60000,
,,,-0.06366399676,0.60000,
,,,-0.06365600228,0.60000,
,,,-0.06364800036,0.60000,
,,,-0.06363999844,0.60000,
,,,-0.06363199651,0.60000,
,,,-0.06362400204,0.60000,
,,,-0.06361600012,0.60000,
,,,-0.06360799819,0.80000,
,,,-0.06359999627,0.60000,
,,,-0.06359200180,0.60000,
,,,-0.06358399987,0.60000,
,,,-0.06357599795,0.60000,
,,,-0.06356800348,0.80000,
,,,-0.06356000155,0.60000,
,,,-0.06355199963,0.60000,
,,,-0.06354399770,0.60000,
,,,-0.06353600323,0.60000,
,,,-0.06352800131,0.60000,
,,,-0.06351999938,0.60000,
,,,-0.06351199746,0.80000,
,,,-0.06350400299,0.60000,
,,,-0.06349600106,0.60000,
,,,-0.06348799914,0.60000,
,,,-0.06347999722,0.60000,
,,,-0.06347200274,0.60000,
,,,-0.06346400082,0.60000,
,,,-0.06345599890,0.60000,
,,,-0.06344799697,0.60000,
,,,-0.06344000250,0.60000,
,,,-0.06343200058,0.60000,
,,,-0.06342399865,0.60000,
,,,-0.06341599673,0.60000,
,,,-0.06340800226,0.60000,
,,,-0.06340000033,0.60000,
,,,-0.06339199841,0.60000,
,,,-0.06338399649,0.80000,
,,,-0.06337600201,0.80000,
,,,-0.06336800009,0.60000,
,,,-0.06335999817,0.60000,
,,,-0.06335199624,0.60000,
,,,-0.06334400177,0.60000,
,,,-0.06333599985,0.60000,
,,,-0.06332799792,0.60000,
,,,-0.06332000345,0.60000,
,,,-0.06331200153,0.60000,
,,,-0.06330399960,0.60000,
,,,-0.06329599768,0.80000,
,,,-0.06328800321,0.60000,
,,,-0.06328000128,0.60000,
,,,-0.06327199936,0.60000,
,,,-0.06326399744,0.60000,
,,,-0.06325600296,0.60000,
,,,-0.06324800104,0.60000,
,,,-0.06323999912,0.60000,
,,,-0.06323199719,0.80000,
,,,-0.06322400272,0.80000,
,,,-0.06321600080,0.60000,
,,,-0.06320799887,0.60000,
,,,-0.06319999695,0.80000,
,,,-0.06319200248,0.60000,
,,,-0.06318400055,0.60000,
,,,-0.06317599863,0.60000,
,,,-0.06316799670,0.60000,
,,,-0.06316000223,0.80000,
,,,-0.06315200031,0.60000,
,,,-0.06314399838,0.80000,
,,,-0.06313599646,0.60000,
,,,-0.06312800199,0.60000,
,,,-0.06312000006,0.60000,
,,,-0.06311199814,0.60000,
,,,-0.06310399622,0.80000,
,,,-0.06309600174,0.60000,
,,,-0.06308799982,0.60000,
,,,-0.06307999790,0.80000,
,,,-0.06307200342,0.60000,
,,,-0.06306400150,0.80000,
,,,-0.06305599958,0.60000,
,,,-0.06304799765,0.60000,
,,,-0.06304000318,0.60000,
,,,-0.06303200126,0.80000,
,,,-0.06302399933,0.60000,
,,,-0.06301599741,0.60000,
,,,-0.06300800294,0.60000,
,,,-0.06300000101,0.60000,
,,,-0.06299199909,0.80000,
,,,-0.06298399717,0.60000,
,,,-0.06297600269,0.80000,
,,,-0.06296800077,0.60000,
,,,-0.06295999885,0.80000,
,,,-0.06295199692,0.60000,
,,,-0.06294400245,0.60000,
,,,-0.06293600053,0.60000,
,,,-0.06292799860,0.60000,
,,,-0.06291999668,0.60000,
,,,-0.06291200221,0.80000,
,,,-0.06290400028,0.60000,
,,,-0.06289599836,0.60000,
,,,-0.06288799644,0.80000,
,,,-0.06288000196,0.60000,
,,,-0.06287200004,0.60000,
,,,-0.06286399812,0.60000,
,,,-0.06285599619,0.60000,
,,,-0.06284800172,0.60000,
,,,-0.06283999979,0.80000,
,,,-0.06283199787,0.60000,
,,,-0.06282400340,0.80000,
,,,-0.06281600147,0.60000,
,,,-0.06280799955,0.60000,
,,,-0.06279999763,0.80000,
,,,-0.06279200315,0.80000,
,,,-0.06278400123,0.80000,
,,,-0.06277599931,0.60000,
,,,-0.06276799738,0.80000,
,,,-0.06276000291,0.60000,
,,,-0.06275200099,0.60000,
,,,-0.06274399906,0.60000,
,,,-0.06273599714,0.80000,
,,,-0.06272800267,0.60000,
,,,-0.06272000074,0.80000,
,,,-0.06271199882,0.80000,
,,,-0.06270399690,0.60000,
,,,-0.06269600242,0.60000,
,,,-0.06268800050,0.60000,
,,,-0.06267999858,0.80000,
,,,-0.06267199665,0.60000,
,,,-0.06266400218,0.60000,
,,,-0.06265600026,0.60000,
,,,-0.06264799833,0.80000,
,,,-0.06263999641,0.80000,
,,,-0.06263200194,0.80000,
,,,-0.06262400001,0.60000,
,,,-0.06261599809,0.60000,
,,,-0.06260799617,0.60000,
,,,-0.06260000169,0.80000,
,,,-0.06259199977,0.80000,
,,,-0.06258399785,0.60000,
,,,-0.06257600337,0.80000,
,,,-0.06256800145,0.80000,
,,,-0.06255999953,0.60000,
,,,-0.06255199760,0.80000,
,,,-0.06254400313,0.60000,
,,,-0.06253600121,0.80000,
,,,-0.06252799928,0.80000,
,,,-0.06251999736,0.80000,
,,,-0.06251200289,0.80000,
,,,-0.06250400096,0.80000,
,,,-0.06249599904,0.80000,
,,,-0.06248800084,0.80000,
,,,-0.06247999892,0.60000,
,,,-0.06247200072,0.60000,
,,,-0.06246399879,0.80000,
,,,-0.06245600060,0.60000,
,,,-0.06244799867,0.60000,
,,,-0.06244000047,0.60000,
,,,-0.06243199855,0.60000,
,,,-0.06242400035,0.60000,
,,,-0.06241599843,0.80000,
,,,-0.06240800023,0.60000,
,,,-0.06239999831,0.60000,
,,,-0.06239200011,0.60000,
,,,-0.06238399819,0.80000,
,,,-0.06237599999,0.80000,
,,,-0.06236799806,0.80000,
,,,-0.06235999987,0.60000,
,,,-0.06235200167,0.80000,
,,,-0.06234399974,0.60000,
,,,-0.06233600155,0.80000,
,,,-0.06232799962,0.60000,
,,,-0.06232000142,0.60000,
,,,-0.06231199950,0.60000,
,,,-0.06230400130,0.80000,
,,,-0.06229599938,0.60000,
,,,-0.06228800118,0.60000,
,,,-0.06227999926,0.80000,
,,,-0.06227200106,0.80000,
,,,-0.06226399913,0.60000,
,,,-0.06225600094,0.80000,
,,,-0.06224799901,0.60000,
,,,-0.06224000081,0.80000,
,,,-0.06223199889,0.60000,
,,,-0.06222400069,0.80000,
,,,-0.06221599877,0.80000,
,,,-0.06220800057,0.60000,
,,,-0.06219999865,0.60000,
,,,-0.06219200045,0.60000,
,,,-0.06218399853,0.80000,
,,,-0.06217600033,0.60000,
,,,-0.06216799840,0.80000,
,,,-0.06216000021,0.80000,
,,,-0.06215199828,0.80000,
,,,-0.06214400008,0.80000,
,,,-0.06213599816,0.60000,
,,,-0.06212799996,0.80000,
,,,-0.06211999804,0.60000,
,,,-0.06211199984,0.80000,
,,,-0.06210400164,0.60000,
,,,-0.06209599972,0.60000,
,,,-0.06208800152,0.80000,
,,,-0.06207999960,0.60000,
,,,-0.06207200140,0.60000,
,,,-0.06206399947,0.80000,
,,,-0.06205600128,0.60000,
,,,-0.06204799935,0.80000,
,,,-0.06204000115,0.60000,
,,,-0.06203199923,0.80000,
,,,-0.06202400103,0.80000,
,,,-0.06201599911,0.60000,
,,,-0.06200800091,0.80000,
,,,-0.06199999899,0.80000,
,,,-0.06199200079,0.80000,
,,,-0.06198399886,0.80000,
,,,-0.06197600067,0.80000,
,,,-0.06196799874,0.60000,
,,,-0.06196000054,0.60000,
,,,-0.06195199862,0.60000,
,,,-0.06194400042,0.80000,
,,,-0.06193599850,0.80000,
,,,-0.06192800030,0.80000,
,,,-0.06191999838,0.80000,
,,,-0.06191200018,0.60000,
,,,-0.06190399826,0.60000,
,,,-0.06189600006,0.60000,
,,,-0.06188799813,0.80000,
,,,-0.06187999994,0.80000,
,,,-0.06187199801,0.80000,
,,,-0.06186399981,0.60000,
,,,-0.06185600162,0.80000,
,,,-0.06184799969,0.60000,
,,,-0.06184000149,0.80000,
,,,-0.06183199957,0.80000,
,,,-0.06182400137,0.80000,
,,,-0.06181599945,0.80000,
,,,-0.06180800125,0.60000,
,,,-0.06179999933,0.80000,
,,,-0.06179200113,0.80000,
,,,-0.06178399920,0.60000,
,,,-0.06177600101,0.60000,
,,,-0.06176799908,0.80000,
,,,-0.06176000088,0.80000,
,,,-0.06175199896,0.80000,
,,,-0.06174400076,0.80000,
,,,-0.06173599884,0.80000,
,,,-0.06172800064,0.80000,
,,,-0.06171999872,0.60000,
,,,-0.06171200052,0.60000,
,,,-0.06170399860,0.80000,
,,,-0.06169600040,0.60000,
,,,-0.06168799847,0.60000,
,,,-0.06168000028,0.80000,
,,,-0.06167199835,0.60000,
,,,-0.06166400015,0.80000,
,,,-0.06165599823,0.80000,
,,,-0.06164800003,0.80000,
,,,-0.06163999811,0.60000,
,,,-0.06163199991,0.80000,
,,,-0.06162399799,0.80000,
,,,-0.06161599979,0.60000,
,,,-0.06160800159,0.60000,
,,,-0.06159999967,0.80000,
,,,-0.06159200147,0.80000,
,,,-0.06158399954,0.60000,
,,,-0.06157600135,0.80000,
,,,-0.06156799942,0.80000,
,,,-0.06156000122,0.80000,
,,,-0.06155199930,0.80000,
,,,-0.06154400110,0.80000,
,,,-0.06153599918,0.80000,
,,,-0.06152800098,0.80000,
,,,-0.06151999906,0.60000,
,,,-0.06151200086,0.80000,
,,,-0.06150399894,0.80000,
,,,-0.06149600074,0.80000,
,,,-0.06148799881,0.80000,
,,,-0.06148000062,0.80000,
,,,-0.06147199869,0.80000,
,,,-0.06146400049,0.80000,
,,,-0.06145599857,0.80000,
,,,-0.06144800037,0.80000,
,,,-0.06143999845,0.80000,
,,,-0.06143200025,0.80000,
,,,-0.06142399833,0.80000,
,,,-0.06141600013,0.80000,
,,,-0.06140799820,0.80000,
,,,-0.06140000001,0.80000,
,,,-0.06139199808,0.80000,
,,,-0.06138399988,0.80000,
,,,-0.06137600169,0.60000,
,,,-0.06136799976,0.60000,
,,,-0.06136000156,0.80000,
,,,-0.06135199964,0.80000,
,,,-0.06134400144,0.80000,
,,,-0.06133599952,0.80000,
,,,-0.06132800132,0.80000,
,,,-0.06131999940,0.80000,
,,,-0.06131200120,0.80000,
,,,-0.06130399927,0.80000,
,,,-0.06129600108,0.80000,
,,,-0.06128799915,0.80000,
,,,-0.06128000095,0.80000,
,,,-0.06127199903,0.60000,
,,,-0.06126400083,0.80000,
,,,-0.06125599891,0.80000,
,,,-0.06124800071,0.80000,
,,,-0.06123999879,0.60000,
,,,-0.06123200059,0.80000,
,,,-0.06122399867,0.80000,
,,,-0.06121600047,0.80000,
,,,-0.06120799854,0.60000,
,,,-0.06120000035,0.60000,
,,,-0.06119199842,0.60000,
,,,-0.06118400022,0.60000,
,,,-0.06117599830,0.80000,
,,,-0.06116800010,0.60000,
,,,-0.06115999818,0.80000,
,,,-0.06115199998,0.60000,
,,,-0.06114399806,0.60000,
,,,-0.06113599986,0.80000,
,,,-0.06112800166,0.80000,
,,,-0.06111999974,0.80000,
,,,-0.06111200154,0.80000,
,,,-0.06110399961,0.80000,
,,,-0.06109600142,0.80000,
,,,-0.06108799949,0.60000,
,,,-0.06108000129,0.60000,
,,,-0.06107199937,0.60000,
,,,-0.06106400117,0.80000,
,,,-0.06105599925,0.80000,
,,,-0.06104800105,0.80000,
,,,-0.06103999913,0.60000,
,,,-0.06103200093,0.80000,
,,,-0.06102399901,0.60000,
,,,-0.06101600081,0.60000,
,,,-0.06100799888,0.60000,
,,,-0.06100000069,0.80000,
,,,-0.06099199876,0.80000,
,,,-0.06098400056,0.80000,
,,,-0.06097599864,0.80000,
,,,-0.06096800044,0.80000,
,,,-0.06095999852,0.80000,
,,,-0.06095200032,0.80000,
,,,-0.06094399840,0.80000,
,,,-0.06093600020,0.80000,
,,,-0.06092799827,0.60000,
,,,-0.06092000008,0.80000,
,,,-0.06091199815,0.60000,
,,,-0.06090399995,0.60000,
,,,-0.06089599803,0.80000,
,,,-0.06088799983,0.80000,
,,,-0.06088000163,0.80000,
,,,-0.06087199971,0.80000,
,,,-0.06086400151,0.80000,
,,,-0.06085599959,0.60000,
,,,-0.06084800139,0.80000,
,,,-0.06083999947,0.80000,
,,,-0.06083200127,0.80000,
,,,-0.06082399935,0.80000,
,,,-0.06081600115,0.60000,
,,,-0.06080799922,0.60000,
,,,-0.06080000103,0.80000,
,,,-0.06079199910,0.80000,
,,,-0.06078400090,0.80000,
,,,-0.06077599898,0.80000,
,,,-0.06076800078,0.80000,
,,,-0.06075999886,0.60000,
,,,-0.06075200066,0.80000,
,,,-0.06074399874,0.60000,
,,,-0.06073600054,0.80000,
,,,-0.06072799861,0.80000,
,,,-0.06072000042,0.80000,
,,,-0.06071199849,0.80000,
,,,-0.06070400029,0.80000,
,,,-0.06069599837,0.80000,
,,,-0.06068800017,0.80000,
,,,-0.06067999825,0.80000,
,,,-0.06067200005,0.80000,
,,,-0.06066399813,0.80000,
,,,-0.06065599993,0.60000,
,,,-0.06064799801,0.80000,
,,,-0.06063999981,0.80000,
,,,-0.06063200161,0.80000,
,,,-0.06062399969,0.60000,
,,,-0.06061600149,0.80000,
,,,-0.06060799956,0.80000,
,,,-0.06060000136,0.80000,
,,,-0.06059199944,0.60000,
,,,-0.06058400124,0.60000,
,,,-0.06057599932,0.80000,
,,,-0.06056800112,0.60000,
,,,-0.06055999920,0.80000,
,,,-0.06055200100,0.60000,
,,,-0.06054399908,0.80000,
,,,-0.06053600088,0.60000,
,,,-0.06052799895,0.80000,
,,,-0.06052000076,0.80000,
,,,-0.06051199883,0.80000,
,,,-0.06050400063,0.60000,
,,,-0.06049599871,0.60000,
,,,-0.06048800051,0.80000,
,,,-0.06047999859,0.60000,
,,,-0.06047200039,0.80000,
,,,-0.06046399847,0.80000,
,,,-0.06045600027,0.80000,
,,,-0.06044799834,0.60000,
,,,-0.06044000015,0.80000,
,,,-0.06043199822,0.80000,
,,,-0.06042400002,0.80000,
,,,-0.06041599810,0.80000,
,,,-0.06040799990,0.80000,
,,,-0.06040000170,0.80000,
,,,-0.06039199978,0.80000,
,,,-0.06038400158,0.80000,
,,,-0.06037599966,0.80000,
,,,-0.06036800146,0.80000,
,,,-0.06035999954,0.60000,
,,,-0.06035200134,0.80000,
,,,-0.06034399942,0.80000,
,,,-0.06033600122,0.60000,
,,,-0.06032799929,0.60000,
,,,-0.06032000110,0.80000,
,,,-0.06031199917,0.80000,
,,,-0.06030400097,0.80000,
,,,-0.06029599905,0.80000,
,,,-0.06028800085,0.80000,
,,,-0.06027999893,0.60000,
,,,-0.06027200073,0.80000,
,,,-0.06026399881,0.80000,
,,,-0.06025600061,0.80000,
,,,-0.06024799868,0.80000,
,,,-0.06024000049,0.60000,
,,,-0.06023199856,0.60000,
,,,-0.06022400036,0.80000,
,,,-0.06021599844,0.80000,
,,,-0.06020800024,0.60000,
,,,-0.06019999832,0.80000,
,,,-0.06019200012,0.80000,
,,,-0.06018399820,0.80000,
,,,-0.06017600000,0.60000,
,,,-0.06016799808,0.80000,
,,,-0.06015999988,0.60000,
,,,-0.06015200168,0.80000,
,,,-0.06014399976,0.60000,
,,,-0.06013600156,0.80000,
,,,-0.06012799963,0.80000,
,,,-0.06012000144,0.60000,
,,,-0.06011199951,0.80000,
,,,-0.06010400131,0.60000,
,,,-0.06009599939,0.80000,
,,,-0.06008800119,0.60000,
,,,-0.06007999927,0.60000,
,,,-0.06007200107,0.80000,
,,,-0.06006399915,0.60000,
,,,-0.06005600095,0.80000,
,,,-0.06004799902,0.60000,
,,,-0.06004000083,0.80000,
,,,-0.06003199890,0.80000,
,,,-0.06002400070,0.80000,
,,,-0.06001599878,0.80000,
,,,-0.06000800058,0.80000,
,,,-0.05999999866,0.80000,
,,,-0.05999200046,0.80000,
,,,-0.05998399854,0.80000,
,,,-0.05997600034,0.80000,
,,,-0.05996799842,0.60000,
,,,-0.05996000022,0.80000,
,,,-0.05995199829,0.80000,
,,,-0.05994400010,0.80000,
,,,-0.05993599817,0.80000,
,,,-0.05992799997,0.80000,
,,,-0.05991999805,0.80000,
,,,-0.05991199985,0.60000,
,,,-0.05990400165,2.20000,
,,,-0.05989599973,3.20000,
,,,-0.05988800153,2.60000,
,,,-0.05987999961,6.00000,
,,,-0.05987200141,4.00000,
,,,-0.05986399949,4.00000,
,,,-0.05985600129,2.40000,
,,,-0.05984799936,5.60000,
,,,-0.05984000117,3.20000,
,,,-0.05983199924,4.40000,
,,,-0.05982400104,4.40000,
,,,-0.05981599912,2.80000,
,,,-0.05980800092,3.20000,
,,,-0.05979999900,4.00000,
,,,-0.05979200080,2.80000,
,,,-0.05978399888,3.00000,
,,,-0.05977600068,3.60000,
,,,-0.05976799875,3.60000,
,,,-0.05976000056,3.00000,
,,,-0.05975199863,3.20000,
,,,-0.05974400043,3.60000,
,,,-0.05973599851,3.20000,
,,,-0.05972800031,3.20000,
,,,-0.05971999839,3.80000,
,,,-0.05971200019,3.40000,
,,,-0.05970399827,3.00000,
,,,-0.05969600007,3.60000,
,,,-0.05968799815,4.20000,
,,,-0.05967999995,3.00000,
,,,-0.05967199802,2.40000,
,,,-0.05966399983,3.80000,
,,,-0.05965600163,4.00000,
,,,-0.05964799970,3.00000,
,,,-0.05964000151,3.00000,
,,,-0.05963199958,3.80000,
,,,-0.05962400138,3.60000,
,,,-0.05961599946,2.80000,
,,,-0.05960800126,3.20000,
,,,-0.05959999934,4.40000,
,,,-0.05959200114,3.20000,
,,,-0.05958399922,3.00000,
,,,-0.05957600102,4.00000,
,,,-0.05956799909,3.40000,
,,,-0.05956000090,3.00000,
,,,-0.05955199897,3.60000,
,,,-0.05954400077,3.20000,
,,,-0.05953599885,3.00000,
,,,-0.05952800065,3.00000,
,,,-0.05951999873,3.60000,
,,,-0.05951200053,3.80000,
,,,-0.05950399861,2.40000,
,,,-0.05949600041,2.60000,
,,,-0.05948799849,4.00000,
,,,-0.05948000029,3.00000,
,,,-0.05947199836,2.60000,
,,,-0.05946400017,3.80000,
,,,-0.05945599824,3.80000,
,,,-0.05944800004,2.40000,
,,,-0.05943999812,3.00000,
,,,-0.05943199992,4.20000,
,,,-0.05942399800,3.40000,
,,,-0.05941599980,2.40000,
,,,-0.05940800160,3.00000,
,,,-0.05939999968,3.60000,
,,,-0.05939200148,2.80000,
,,,-0.05938399956,2.40000,
,,,-0.05937600136,3.60000,
,,,-0.05936799943,3.60000,
,,,-0.05936000124,2.60000,
,,,-0.05935199931,3.20000,
,,,-0.05934400111,3.20000,
,,,-0.05933599919,3.00000,
,,,-0.05932800099,3.20000,
,,,-0.05931999907,3.20000,
,,,-0.05931200087,3.20000,
,,,-0.05930399895,3.00000,
,,,-0.05929600075,3.00000,
,,,-0.05928799883,3.60000,
,,,-0.05928000063,2.60000,
,,,-0.05927199870,2.20000,
,,,-0.05926400051,3.60000,
,,,-0.05925599858,3.20000,
,,,-0.05924800038,2.40000,
,,,-0.05923999846,3.00000,
,,,-0.05923200026,3.60000,
,,,-0.05922399834,2.80000,
,,,-0.05921600014,2.40000,
,,,-0.05920799822,3.20000,
,,,-0.05920000002,3.80000,
,,,-0.05919199809,2.40000,
,,,-0.05918399990,2.80000,
,,,-0.05917600170,3.40000,
,,,-0.05916799977,3.00000,
,,,-0.05916000158,2.40000,
,,,-0.05915199965,3.00000,
,,,-0.05914400145,3.40000,
,,,-0.05913599953,2.20000,
,,,-0.05912800133,2.20000,
,,,-0.05911999941,3.20000,
,,,-0.05911200121,3.00000,
,,,-0.05910399929,2.80000,
,,,-0.05909600109,2.60000,
,,,-0.05908799917,3.20000,
,,,-0.05908000097,2.80000,
,,,-0.05907199904,2.20000,
,,,-0.05906400084,3.20000,
,,,-0.05905599892,3.00000,
,,,-0.05904800072,2.60000,
,,,-0.05903999880,3.00000,
,,,-0.05903200060,3.20000,
,,,-0.05902399868,2.80000,
,,,-0.05901600048,2.40000,
,,,-0.05900799856,2.80000,
,,,-0.05900000036,2.80000,
,,,-0.05899199843,2.00000,
,,,-0.05898400024,2.40000,
,,,-0.05897599831,3.40000,
,,,-0.05896800011,2.40000,
,,,-0.05895999819,2.20000,
,,,-0.05895199999,3.00000,
,,,-0.05894399807,3.00000,
,,,-0.05893599987,2.20000,
,,,-0.05892800167,2.60000,
,,,-0.05891999975,3.40000,
,,,-0.05891200155,3.20000,
,,,-0.05890399963,2.00000,
,,,-0.05889600143,2.60000,
,,,-0.05888799950,3.60000,
,,,-0.05888000131,2.40000,
,,,-0.05887199938,2.00000,
,,,-0.05886400118,3.00000,
,,,-0.05885599926,2.80000,
,,,-0.05884800106,2.20000,
,,,-0.05883999914,2.80000,
,,,-0.05883200094,3.00000,
,,,-0.05882399902,3.00000,
,,,-0.05881600082,2.40000,
,,,-0.05880799890,2.60000,
,,,-0.05880000070,3.00000,
,,,-0.05879199877,2.60000,
,,,-0.05878400058,2.80000,
,,,-0.05877599865,3.20000,
,,,-0.05876800045,2.80000,
,,,-0.05875999853,2.40000,
,,,-0.05875200033,3.00000,
,,,-0.05874399841,2.60000,
,,,-0.05873600021,1.60000,
,,,-0.05872799829,2.20000,
,,,-0.05872000009,3.40000,
,,,-0.05871199816,2.60000,
,,,-0.05870399997,2.00000,
,,,-0.05869599804,3.00000,
,,,-0.05868799984,3.20000,
,,,-0.05868000165,2.20000,
,,,-0.05867199972,1.40000,
,,,-0.05866400152,3.20000,
,,,-0.05865599960,3.40000,
,,,-0.05864800140,2.00000,
,,,-0.05863999948,2.20000,
,,,-0.05863200128,3.20000,
,,,-0.05862399936,2.60000,
,,,-0.05861600116,2.00000,
,,,-0.05860799924,2.20000,
,,,-0.05860000104,2.60000,
,,,-0.05859199911,2.20000,
,,,-0.05858400092,2.40000,
,,,-0.05857599899,2.80000,
,,,-0.05856800079,2.20000,
,,,-0.05855999887,2.20000,
,,,-0.05855200067,2.60000,
,,,-0.05854399875,2.20000,
,,,-0.05853600055,1.80000,
,,,-0.05852799863,2.60000,
,,,-0.05852000043,3.00000,
,,,-0.05851199850,2.20000,
,,,-0.05850400031,1.80000,
,,,-0.05849599838,3.00000,
,,,-0.05848800018,2.80000,
,,,-0.05847999826,1.40000,
,,,-0.05847200006,1.60000,
,,,-0.05846399814,2.40000,
,,,-0.05845599994,2.20000,
,,,-0.05844799802,1.60000,
,,,-0.05843999982,2.00000,
,,,-0.05843200162,3.20000,
,,,-0.05842399970,2.00000,
,,,-0.05841600150,1.60000,
,,,-0.05840799958,2.40000,
,,,-0.05840000138,2.20000,
,,,-0.05839199945,2.00000,
,,,-0.05838400126,2.00000,
,,,-0.05837599933,3.20000,
,,,-0.05836800113,2.60000,
,,,-0.05835999921,1.60000,
,,,-0.05835200101,2.20000,
,,,-0.05834399909,2.40000,
,,,-0.05833600089,1.20000,
,,,-0.05832799897,1.40000,
,,,-0.05832000077,2.60000,
,,,-0.05831199884,2.60000,
,,,-0.05830400065,1.60000,
,,,-0.05829599872,2.00000,
,,,-0.05828800052,2.40000,
,,,-0.05827999860,2.00000,
,,,-0.05827200040,1.60000,
,,,-0.05826399848,2.40000,
,,,-0.05825600028,2.20000,
,,,-0.05824799836,2.00000,
,,,-0.05824000016,2.40000,
,,,-0.05823199823,2.40000,
,,,-0.05822400004,1.60000,
,,,-0.05821599811,1.60000,
,,,-0.05820799991,1.80000,
,,,-0.05819999799,2.00000,
,,,-0.05819199979,1.00000,
,,,-0.05818400159,2.20000,
,,,-0.05817599967,2.60000,
,,,-0.05816800147,1.80000,
,,,-0.05815999955,1.20000,
,,,-0.05815200135,2.00000,
,,,-0.05814399943,2.40000,
,,,-0.05813600123,1.20000,
,,,-0.05812799931,1.60000,
,,,-0.05812000111,2.80000,
,,,-0.05811199918,2.40000,
,,,-0.05810400099,1.40000,
,,,-0.05809599906,2.20000,
,,,-0.05808800086,2.40000,
,,,-0.05807999894,1.20000,
,,,-0.05807200074,1.00000,
,,,-0.05806399882,1.60000,
,,,-0.05805600062,2.20000,
,,,-0.05804799870,1.80000,
,,,-0.05804000050,1.60000,
,,,-0.05803199857,2.20000,
,,,-0.05802400038,1.40000,
,,,-0.05801599845,1.40000,
,,,-0.05800800025,1.60000,
,,,-0.05799999833,1.40000,
,,,-0.05799200013,1.80000,
,,,-0.05798399821,2.00000,
,,,-0.05797600001,2.20000,
,,,-0.05796799809,2.00000,
,,,-0.05795999989,1.20000,
,,,-0.05795200169,1.80000,
,,,-0.05794399977,1.60000,
,,,-0.05793600157,0.80000,
,,,-0.05792799965,1.20000,
,,,-0.05792000145,2.20000,
,,,-0.05791199952,2.00000,
,,,-0.05790400133,1.20000,
,,,-0.05789599940,2.00000,
,,,-0.05788800120,1.80000,
,,,-0.05787999928,1.00000,
,,,-0.05787200108,1.20000,
,,,-0.05786399916,2.00000,
,,,-0.05785600096,1.40000,
,,,-0.05784799904,1.40000,
,,,-0.05784000084,2.00000,
,,,-0.05783199891,2.20000,
,,,-0.05782400072,1.20000,
,,,-0.05781599879,0.80000,
,,,-0.05780800059,1.40000,
,,,-0.05779999867,1.40000,
,,,-0.05779200047,0.80000,
,,,-0.05778399855,1.20000,
,,,-0.05777600035,2.20000,
,,,-0.05776799843,1.60000,
,,,-0.05776000023,1.00000,
,,,-0.05775199831,1.20000,
,,,-0.05774400011,1.80000,
,,,-0.05773599818,1.00000,
,,,-0.05772799999,1.00000,
,,,-0.05771999806,2.20000,
,,,-0.05771199986,2.00000,
,,,-0.05770400167,1.20000,
,,,-0.05769599974,1.80000,
,,,-0.05768800154,1.40000,
,,,-0.05767999962,0.80000,
,,,-0.05767200142,1.20000,
,,,-0.05766399950,1.80000,
,,,-0.05765600130,2.20000,
,,,-0.05764799938,2.80000,
,,,-0.05764000118,4.00000,
,,,-0.05763199925,3.60000,
,,,-0.05762400106,3.60000,
,,,-0.05761599913,5.80000,
,,,-0.05760800093,7.00000,
,,,-0.05759999901,7.40000,
,,,-0.05759200081,8.00000,
,,,-0.05758399889,4.60000,
,,,-0.05757600069,8.00000,
,,,-0.05756799877,9.20000,
,,,-0.05756000057,3.20000,
,,,-0.05755199865,-0.80000,
,,,-0.05754400045,-1.20000,
,,,-0.05753599852,-1.60000,
,,,-0.05752800032,-1.60000,
,,,-0.05751999840,-1.80000,
,,,-0.05751200020,-1.60000,
,,,-0.05750399828,-1.80000,
,,,-0.05749600008,-1.80000,
,,,-0.05748799816,-1.80000,
,,,-0.05747999996,-1.80000,
,,,-0.05747199804,-1.80000,
,,,-0.05746399984,-1.80000,
,,,-0.05745600164,-1.60000,
,,,-0.05744799972,-2.00000,
,,,-0.05744000152,-1.80000,
,,,-0.05743199959,-1.80000,
,,,-0.05742400140,-1.80000,
,,,-0.05741599947,-1.80000,
,,,-0.05740800127,-1.80000,
,,,-0.05739999935,-1.80000,
,,,-0.05739200115,-1.80000,
,,,-0.05738399923,-1.80000,
,,,-0.05737600103,-1.80000,
,,,-0.05736799911,-1.80000,
,,,-0.05736000091,-1.80000,
,,,-0.05735199898,-1.80000,
,,,-0.05734400079,-1.80000,
,,,-0.05733599886,-2.00000,
,,,-0.05732800066,-1.80000,
,,,-0.05731999874,-1.80000,
,,,-0.05731200054,-1.80000,
,,,-0.05730399862,-1.80000,
,,,-0.05729600042,-1.80000,
,,,-0.05728799850,-1.80000,
,,,-0.05728000030,-1.80000,
,,,-0.05727199838,-1.80000,
,,,-0.05726400018,-1.60000,
,,,-0.05725599825,-2.00000,
,,,-0.05724800006,-1.60000,
,,,-0.05723999813,-1.80000,
,,,-0.05723199993,-1.60000,
,,,-0.05722399801,-1.60000,
,,,-0.05721599981,-1.80000,
,,,-0.05720800161,-1.80000,
,,,-0.05719999969,-1.80000,
,,,-0.05719200149,-1.80000,
,,,-0.05718399957,-1.60000,
,,,-0.05717600137,-1.80000,
,,,-0.05716799945,-1.80000,
,,,-0.05716000125,-1.80000,
,,,-0.05715199932,-1.80000,
,,,-0.05714400113,-1.80000,
,,,-0.05713599920,-1.60000,
,,,-0.05712800100,-1.60000,
,,,-0.05711999908,-1.60000,
,,,-0.05711200088,-1.60000,
,,,-0.05710399896,-1.80000,
,,,-0.05709600076,-1.80000,
,,,-0.05708799884,-1.80000,
,,,-0.05708000064,-1.60000,
,,,-0.05707199872,-1.60000,
,,,-0.05706400052,-1.80000,
,,,-0.05705599859,-1.60000,
,,,-0.05704800040,-1.60000,
,,,-0.05703999847,-1.80000,
,,,-0.05703200027,-1.60000,
,,,-0.05702399835,-1.80000,
,,,-0.05701600015,-1.60000,
,,,-0.05700799823,-1.80000,
,,,-0.05700000003,-1.60000,
,,,-0.05699199811,-1.60000,
,,,-0.05698399991,-1.60000,
,,,-0.05697600171,-1.60000,
,,,-0.05696799979,-2.00000,
,,,-0.05696000159,-1.60000,
,,,-0.05695199966,-1.40000,
,,,-0.05694400147,-1.60000,
,,,-0.05693599954,-1.60000,
,,,-0.05692800134,-1.40000,
,,,-0.05691999942,-1.60000,
,,,-0.05691200122,-1.60000,
,,,-0.05690399930,-1.80000,
,,,-0.05689600110,-1.60000,
,,,-0.05688799918,-1.60000,
,,,-0.05688000098,-1.60000,
,,,-0.05687199906,-1.60000,
,,,-0.05686400086,-1.60000,
,,,-0.05685599893,-1.60000,
,,,-0.05684800074,-1.00000,
,,,-0.05683999881,-1.80000,
,,,-0.05683200061,-1.80000,
,,,-0.05682399869,-1.60000,
,,,-0.05681600049,-1.20000,
,,,-0.05680799857,-1.80000,
,,,-0.05680000037,-1.60000,
,,,-0.05679199845,-0.80000,
,,,-0.05678400025,-1.00000,
,,,-0.05677599832,-1.60000,
,,,-0.05676800013,-1.80000,
,,,-0.05675999820,-1.60000,
,,,-0.05675200000,-1.60000,
,,,-0.05674399808,-1.40000,
,,,-0.05673599988,-1.60000,
,,,-0.05672800168,0.00,
,,,-0.05671999976,-1.00000,
,,,-0.05671200156,-1.60000,
,,,-0.05670399964,-1.60000,
,,,-0.05669600144,-1.60000,
,,,-0.05668799952,-1.60000,
,,,-0.05668000132,-1.20000,
,,,-0.05667199939,-1.40000,
,,,-0.05666400120,-1.60000,
,,,-0.05665599927,-1.60000,
,,,-0.05664800107,-1.60000,
,,,-0.05663999915,-1.60000,
,,,-0.05663200095,-1.80000,
,,,-0.05662399903,-1.60000,
,,,-0.05661600083,-1.40000,
,,,-0.05660799891,-1.60000,
,,,-0.05660000071,-1.40000,
,,,-0.05659199879,-1.20000,
,,,-0.05658400059,-1.00000,
,,,-0.05657599866,-1.60000,
,,,-0.05656800047,-1.60000,
,,,-0.05655999854,-1.20000,
,,,-0.05655200034,-1.20000,
,,,-0.05654399842,-1.40000,
,,,-0.05653600022,-1.60000,
,,,-0.05652799830,-1.20000,
,,,-0.05652000010,-1.40000,
,,,-0.05651199818,-1.60000,
,,,-0.05650399998,-1.60000,
,,,-0.05649599805,-1.60000,
,,,-0.05648799986,-1.60000,
,,,-0.05648000166,-1.40000,
,,,-0.05647199973,-1.20000,
,,,-0.05646400154,-1.60000,
,,,-0.05645599961,-1.20000,
,,,-0.05644800141,-0.80000,
,,,-0.05643999949,-1.20000,
,,,-0.05643200129,-1.60000,
,,,-0.05642399937,-1.40000,
,,,-0.05641600117,0.00,
,,,-0.05640799925,-1.20000,
,,,-0.05640000105,-1.60000,
,,,-0.05639199913,-1.20000,
,,,-0.05638400093,-1.20000,
,,,-0.05637599900,-1.60000,
,,,-0.05636800081,-1.60000,
,,,-0.05635999888,-1.60000,
,,,-0.05635200068,-1.40000,
,,,-0.05634399876,-1.60000,
,,,-0.05633600056,-1.40000,
,,,-0.05632799864,1.80000,
,,,-0.05632000044,-0.40000,
,,,-0.05631199852,-1.20000,
,,,-0.05630400032,-1.60000,
,,,-0.05629599839,-1.60000,
,,,-0.05628800020,-1.20000,
,,,-0.05627999827,-1.00000,
,,,-0.05627200007,-1.40000,
,,,-0.05626399815,-1.80000,
,,,-0.05625599995,-1.40000,
,,,-0.05624799803,-1.00000,
,,,-0.05623999983,-1.60000,
,,,-0.05623200163,-1.60000,
,,,-0.05622399971,-1.00000,
,,,-0.05621600151,-1.20000,
,,,-0.05620799959,-1.40000,
,,,-0.05620000139,-1.40000,
,,,-0.05619199947,0.60000,
,,,-0.05618400127,3.20000,
,,,-0.05617599934,-0.80000,
,,,-0.05616800115,-1.60000,
,,,-0.05615999922,0.80000,
,,,-0.05615200102,1.00000,
,,,-0.05614399910,-1.20000,
,,,-0.05613600090,-1.60000,
,,,-0.05612799898,-0.80000,
,,,-0.05612000078,-0.60000,
,,,-0.05611199886,-1.60000,
,,,-0.05610400066,-1.60000,
,,,-0.05609599873,-1.40000,
,,,-0.05608800054,-1.60000,
,,,-0.05607999861,-1.40000,
,,,-0.05607200041,-1.00000,
,,,-0.05606399849,-1.20000,
,,,-0.05605600029,-0.80000,
,,,-0.05604799837,-1.20000,
,,,-0.05604000017,-1.60000,
,,,-0.05603199825,-1.60000,
,,,-0.05602400005,-1.00000,
,,,-0.05601599813,-0.80000,
,,,-0.05600799993,-1.40000,
,,,-0.05599999800,-1.60000,
,,,-0.05599199980,-1.40000,
,,,-0.05598400161,-1.40000,
,,,-0.05597599968,-1.60000,
,,,-0.05596800148,-1.60000,
,,,-0.05595999956,-1.20000,
,,,-0.05595200136,-1.40000,
,,,-0.05594399944,-1.80000,
,,,-0.05593600124,-1.20000,
,,,-0.05592799932,2.40000,
,,,-0.05592000112,-0.80000,
,,,-0.05591199920,-1.60000,
,,,-0.05590400100,-1.60000,
,,,-0.05589599907,-1.40000,
,,,-0.05588800088,-1.40000,
,,,-0.05587999895,-1.40000,
,,,-0.05587200075,-1.40000,
,,,-0.05586399883,-1.60000,
,,,-0.05585600063,-1.60000,
,,,-0.05584799871,-1.60000,
,,,-0.05584000051,-1.60000,
,,,-0.05583199859,-1.60000,
,,,-0.05582400039,-1.60000,
,,,-0.05581599846,-1.60000,
,,,-0.05580800027,-1.60000,
,,,-0.05579999834,-1.60000,
,,,-0.05579200014,-0.40000,
,,,-0.05578399822,-0.80000,
,,,-0.05577600002,-1.60000,
,,,-0.05576799810,-1.80000,
,,,-0.05575999990,-1.40000,
,,,-0.05575200170,-1.00000,
,,,-0.05574399978,-1.60000,
,,,-0.05573600158,-1.80000,
,,,-0.05572799966,-1.60000,
,,,-0.05572000146,-1.60000,
,,,-0.05571199954,-1.60000,
,,,-0.05570400134,-1.60000,
,,,-0.05569599941,-1.60000,
,,,-0.05568800122,-1.80000,
,,,-0.05567999929,-1.60000,
,,,-0.05567200109,-1.20000,
,,,-0.05566399917,-1.40000,
,,,-0.05565600097,-1.60000,
,,,-0.05564799905,-1.40000,
,,,-0.05564000085,-1.60000,
,,,-0.05563199893,-1.60000,
,,,-0.05562400073,-1.20000,
,,,-0.05561599880,-1.00000,
,,,-0.05560800061,-1.60000,
,,,-0.05559999868,-1.80000,
,,,-0.05559200048,-1.60000,
,,,-0.05558399856,-1.20000,
,,,-0.05557600036,-1.60000,
,,,-0.05556799844,-1.60000,
,,,-0.05556000024,-1.60000,
,,,-0.05555199832,-1.40000,
,,,-0.05554400012,-1.60000,
,,,-0.05553599820,-1.60000,
,,,-0.05552800000,0.00,
,,,-0.05551999807,-0.80000,
,,,-0.05551199988,-1.60000,
,,,-0.05550400168,-1.00000,
,,,-0.05549599975,-1.00000,
,,,-0.05548800156,-1.40000,
,,,-0.05547999963,-1.60000,
,,,-0.05547200143,-1.60000,
,,,-0.05546399951,-1.60000,
,,,-0.05545600131,-1.80000,
,,,-0.05544799939,-1.20000,
,,,-0.05544000119,-1.60000,
,,,-0.05543199927,-1.80000,
,,,-0.05542400107,-1.60000,
,,,-0.05541599914,-1.40000,
,,,-0.05540800095,-1.60000,
,,,-0.05539999902,-1.40000,
,,,-0.05539200082,-0.80000,
,,,-0.05538399890,-0.60000,
,,,-0.05537600070,-1.60000,
,,,-0.05536799878,-1.80000,
,,,-0.05536000058,-1.20000,
,,,-0.05535199866,0.00,
,,,-0.05534400046,-1.60000,
,,,-0.05533599854,-1.60000,
,,,-0.05532800034,-1.00000,
,,,-0.05531999841,-1.40000,
,,,-0.05531200022,-1.60000,
,,,-0.05530399829,-1.60000,
,,,-0.05529600009,-1.60000,
,,,-0.05528799817,-1.60000,
,,,-0.05527999997,-1.60000,
,,,-0.05527199805,-1.40000,
,,,-0.05526399985,-1.20000,
,,,-0.05525600165,-1.60000,
,,,-0.05524799973,-1.60000,
,,,-0.05524000153,-1.60000,
,,,-0.05523199961,-1.60000,
,,,-0.05522400141,-1.20000,
,,,-0.05521599948,-1.40000,
,,,-0.05520800129,-1.60000,
,,,-0.05519999936,-1.80000,
,,,-0.05519200116,-1.60000,
,,,-0.05518399924,-1.40000,
,,,-0.05517600104,-1.60000,
,,,-0.05516799912,-1.80000,
,,,-0.05516000092,-1.60000,
,,,-0.05515199900,-1.60000,
,,,-0.05514400080,-1.60000,
,,,-0.05513599887,-1.80000,
,,,-0.05512800068,0.00,
,,,-0.05511999875,-1.00000,
,,,-0.05511200055,-1.60000,
,,,-0.05510399863,-1.60000,
,,,-0.05509600043,-0.60000,
,,,-0.05508799851,-1.40000,
,,,-0.05508000031,-1.80000,
,,,-0.05507199839,-1.60000,
,,,-0.05506400019,-1.40000,
,,,-0.05505599827,-1.80000,
,,,-0.05504800007,-1.60000,
,,,-0.05503999814,-1.60000,
,,,-0.05503199995,-1.60000,
,,,-0.05502399802,-1.80000,
,,,-0.05501599982,-1.60000,
,,,-0.05500800163,-1.40000,
,,,-0.05499999970,-1.60000,
,,,-0.05499200150,-1.40000,
,,,-0.05498399958,-1.40000,
,,,-0.05497600138,-1.40000,
,,,-0.05496799946,-1.40000,
,,,-0.05496000126,-1.00000,
,,,-0.05495199934,-0.60000,
,,,-0.05494400114,-1.60000,
,,,-0.05493599921,-1.60000,
,,,-0.05492800102,-1.60000,
,,,-0.05491999909,-1.80000,
,,,-0.05491200089,-1.60000,
,,,-0.05490399897,-1.60000,
,,,-0.05489600077,-1.60000,
,,,-0.05488799885,-1.60000,
,,,-0.05488000065,-1.80000,
,,,-0.05487199873,-1.40000,
,,,-0.05486400053,-1.20000,
,,,-0.05485599861,-1.40000,
,,,-0.05484800041,-1.60000,
,,,-0.05483999848,-1.40000,
,,,-0.05483200029,-1.40000,
,,,-0.05482399836,-1.40000,
,,,-0.05481600016,-1.60000,
,,,-0.05480799824,-1.80000,
,,,-0.05480000004,-1.80000,
,,,-0.05479199812,-1.60000,
,,,-0.05478399992,-1.60000,
,,,-0.05477600172,-1.60000,
,,,-0.05476799980,-1.60000,
,,,-0.05476000160,-1.60000,
,,,-0.05475199968,-1.40000,
,,,-0.05474400148,-1.80000,
,,,-0.05473599955,-1.80000,
,,,-0.05472800136,5.00000,
,,,-0.05471999943,0.00,
,,,-0.05471200123,-1.40000,
,,,-0.05470399931,-1.00000,
,,,-0.05469600111,-0.80000,
,,,-0.05468799919,-1.60000,
,,,-0.05468000099,-1.80000,
,,,-0.05467199907,-1.80000,
,,,-0.05466400087,-1.20000,
,,,-0.05465599895,-1.80000,
,,,-0.05464800075,-1.80000,
,,,-0.05463999882,-1.80000,
,,,-0.05463200063,-1.60000,
,,,-0.05462399870,-1.60000,
,,,-0.05461600050,-1.60000,
,,,-0.05460799858,-1.60000,
,,,-0.05460000038,-1.60000,
,,,-0.05459199846,-1.60000,
,,,-0.05458400026,-1.40000,
,,,-0.05457599834,-1.60000,
,,,-0.05456800014,-1.60000,
,,,-0.05455999821,-1.60000,
,,,-0.05455200002,-1.60000,
,,,-0.05454399809,-1.80000,
,,,-0.05453599989,-1.80000,
,,,-0.05452800170,-1.80000,
,,,-0.05451999977,-1.60000,
,,,-0.05451200157,-2.00000,
,,,-0.05450399965,-1.80000,
,,,-0.05449600145,-1.60000,
,,,-0.05448799953,-1.80000,
,,,-0.05448000133,-1.80000,
,,,-0.05447199941,-1.60000,
,,,-0.05446400121,-1.60000,
,,,-0.05445599928,-1.80000,
,,,-0.05444800109,-1.80000,
,,,-0.05443999916,-1.60000,
,,,-0.05443200096,-1.60000,
,,,-0.05442399904,-1.80000,
,,,-0.05441600084,-1.60000,
,,,-0.05440799892,-1.60000,
,,,-0.05440000072,-1.80000,
,,,-0.05439199880,-2.00000,
,,,-0.05438400060,-1.60000,
,,,-0.05437599868,-1.80000,
,,,-0.05436800048,-1.80000,
,,,-0.05435999855,-1.80000,
,,,-0.05435200036,-1.60000,
,,,-0.05434399843,-1.80000,
,,,-0.05433600023,-2.00000,
,,,-0.05432799831,-1.60000,
,,,-0.05432000011,-1.60000,
,,,-0.05431199819,-1.80000,
,,,-0.05430399999,-1.80000,
,,,-0.05429599807,-1.60000,
,,,-0.05428799987,-1.60000,
,,,-0.05428000167,-1.80000,
,,,-0.05427199975,-1.80000,
,,,-0.05426400155,-1.80000,
,,,-0.05425599962,-1.80000,
,,,-0.05424800143,-1.80000,
,,,-0.05423999950,-1.80000,
,,,-0.05423200130,-1.80000,
,,,-0.05422399938,-1.80000,
,,,-0.05421600118,-1.60000,
,,,-0.05420799926,-1.80000,
,,,-0.05420000106,-1.80000,
,,,-0.05419199914,-1.80000,
,,,-0.05418400094,-1.60000,
,,,-0.05417599902,-1.60000,
,,,-0.05416800082,-1.80000,
,,,-0.05415999889,-1.80000,
,,,-0.05415200070,-1.60000,
,,,-0.05414399877,-1.80000,
,,,-0.05413600057,-1.80000,
,,,-0.05412799865,-1.80000,
,,,-0.05412000045,-1.60000,
,,,-0.05411199853,-1.80000,
,,,-0.05410400033,-2.00000,
,,,-0.05409599841,-1.60000,
,,,-0.05408800021,-1.60000,
,,,-0.05407999828,-2.00000,
,,,-0.05407200009,-1.80000,
,,,-0.05406399816,-1.80000,
,,,-0.05405599996,-1.80000,
,,,-0.05404799804,-1.80000,
,,,-0.05403999984,-1.80000,
,,,-0.05403200164,-1.80000,
,,,-0.05402399972,-2.00000,
,,,-0.05401600152,-1.60000,
,,,-0.05400799960,-1.60000,
,,,-0.05400000140,-2.00000,
,,,-0.05399199948,-2.00000,
,,,-0.05398400128,-1.80000,
,,,-0.05397599936,-1.80000,
,,,-0.05396800116,-2.00000,
,,,-0.05395999923,-1.80000,
,,,-0.05395200104,-1.60000,
,,,-0.05394399911,-1.80000,
,,,-0.05393600091,-2.00000,
,,,-0.05392799899,-1.80000,
,,,-0.05392000079,-1.80000,
,,,-0.05391199887,-1.80000,
,,,-0.05390400067,-1.80000,
,,,-0.05389599875,-1.60000,
,,,-0.05388800055,-1.60000,
,,,-0.05387999862,-1.80000,
,,,-0.05387200043,-2.00000,
,,,-0.05386399850,-2.00000,
,,,-0.05385600030,-1.80000,
,,,-0.05384799838,-2.00000,
,,,-0.05384000018,-1.80000,
,,,-0.05383199826,-1.80000,
,,,-0.05382400006,-2.00000,
,,,-0.05381599814,-1.80000,
,,,-0.05380799994,-2.00000,
,,,-0.05379999802,-2.00000,
,,,-0.05379199982,-2.00000,
,,,-0.05378400162,-1.80000,
,,,-0.05377599970,-1.80000,
,,,-0.05376800150,-2.00000,
,,,-0.05375999957,-1.80000,
,,,-0.05375200137,-1.80000,
,,,-0.05374399945,-1.80000,
,,,-0.05373600125,-2.00000,
,,,-0.05372799933,-1.80000,
,,,-0.05372000113,-1.80000,
,,,-0.05371199921,-2.00000,
,,,-0.05370400101,-2.00000,
,,,-0.05369599909,-1.80000,
,,,-0.05368800089,-1.80000,
,,,-0.05367999896,-2.00000,
,,,-0.05367200077,-2.00000,
,,,-0.05366399884,-1.80000,
,,,-0.05365600064,-2.00000,
,,,-0.05364799872,-2.00000,
,,,-0.05364000052,-1.80000,
,,,-0.05363199860,-1.80000,
,,,-0.05362400040,-2.00000,
,,,-0.05361599848,-1.80000,
,,,-0.05360800028,-1.80000,
,,,-0.05359999835,-1.80000,
,,,-0.05359200016,-1.80000,
,,,-0.05358399823,-1.80000,
,,,-0.05357600003,-1.80000,
,,,-0.05356799811,-2.00000,
,,,-0.05355999991,-2.00000,
,,,-0.05355200171,-1.80000,
,,,-0.05354399979,-2.00000,
,,,-0.05353600159,-2.00000,
,,,-0.05352799967,-2.00000,
,,,-0.05352000147,-1.80000,
,,,-0.05351199955,-1.80000,
,,,-0.05350400135,-1.80000,
,,,-0.05349599943,-1.80000,
,,,-0.05348800123,-1.80000,
,,,-0.05347999930,-2.00000,
,,,-0.05347200111,-2.00000,
,,,-0.05346399918,-1.80000,
,,,-0.05345600098,-2.00000,
,,,-0.05344799906,-1.80000,
,,,-0.05344000086,-1.80000,
,,,-0.05343199894,-1.80000,
,,,-0.05342400074,-2.00000,
,,,-0.05341599882,-2.00000,
,,,-0.05340800062,-2.00000,
,,,-0.05339999869,-2.00000,
,,,-0.05339200050,-2.00000,
,,,-0.05338399857,-1.80000,
,,,-0.05337600037,-2.00000,
,,,-0.05336799845,-2.00000,
,,,-0.05336000025,-2.00000,
,,,-0.05335199833,-1.80000,
,,,-0.05334400013,-2.00000,
,,,-0.05333599821,-2.00000,
,,,-0.05332800001,-1.80000,
,,,-0.05331999809,-2.00000,
,,,-0.05331199989,-1.80000,
,,,-0.05330400169,-1.80000,
,,,-0.05329599977,-1.80000,
,,,-0.05328800157,-1.80000,
,,,-0.05327999964,-2.00000,
,,,-0.05327200145,-2.00000,
,,,-0.05326399952,-2.00000,
,,,-0.05325600132,-2.00000,
,,,-0.05324799940,-2.00000,
,,,-0.05324000120,-2.00000,
,,,-0.05323199928,-1.80000,
,,,-0.05322400108,-2.00000,
,,,-0.05321599916,-1.80000,
,,,-0.05320800096,-2.00000,
,,,-0.05319999903,-2.00000,
,,,-0.05319200084,-2.00000,
,,,-0.05318399891,-2.00000,
,,,-0.05317600071,-2.00000,
,,,-0.05316799879,-1.80000,
,,,-0.05316000059,-2.00000,
,,,-0.05315199867,-2.00000,
,,,-0.05314400047,-1.80000,
,,,-0.05313599855,-2.00000,
,,,-0.05312800035,-2.00000,
,,,-0.05311999843,-2.00000,
,,,-0.05311200023,-2.00000,
,,,-0.05310399830,-1.80000,
,,,-0.05309600011,-1.80000,
,,,-0.05308799818,-2.00000,
,,,-0.05307999998,-1.80000,
,,,-0.05307199806,-2.00000,
,,,-0.05306399986,-2.00000,
,,,-0.05305600166,-2.00000,
,,,-0.05304799974,-2.00000,
,,,-0.05304000154,-2.00000,
,,,-0.05303199962,-2.00000,
,,,-0.05302400142,-2.00000,
,,,-0.05301599950,-2.00000,
,,,-0.05300800130,-2.00000,
,,,-0.05299999937,-2.00000,
,,,-0.05299200118,-2.00000,
,,,-0.05298399925,-2.00000,
,,,-0.05297600105,-2.00000,
,,,-0.05296799913,-2.00000,
,,,-0.05296000093,-2.00000,
,,,-0.05295199901,-2.00000,
,,,-0.05294400081,-2.00000,
,,,-0.05293599889,-2.00000,
,,,-0.05292800069,-1.80000,
,,,-0.05291999876,-2.00000,
,,,-0.05291200057,-2.00000,
,,,-0.05290399864,-2.00000,
,,,-0.05289600044,-2.00000,
,,,-0.05288799852,-1.80000,
,,,-0.05288000032,-2.00000,
,,,-0.05287199840,-2.00000,
,,,-0.05286400020,-2.00000,
,,,-0.05285599828,-2.40000,
,,,-0.05284800008,-2.20000,
,,,-0.05283999816,-2.00000,
,,,-0.05283199996,-2.00000,
,,,-0.05282399803,-2.20000,
,,,-0.05281599984,-3.80000,
,,,-0.05280800164,-3.20000,
,,,-0.05279999971,-4.60000,
,,,-0.05279200152,-11.40000,
,,,-0.05278399959,-12.40000,
,,,-0.05277600139,-9.60000,
,,,-0.05276799947,-12.00000,
,,,-0.05276000127,-12.80000,
,,,-0.05275199935,-12.80000,
,,,-0.05274400115,-12.80000,
,,,-0.05273599923,-12.80000,
,,,-0.05272800103,-12.60000,
,,,-0.05271999910,-12.80000,
,,,-0.05271200091,-12.80000,
,,,-0.05270399898,-12.80000,
,,,-0.05269600078,-12.80000,
,,,-0.05268799886,-12.80000,
,,,-0.05268000066,-12.80000,
,,,-0.05267199874,-13.00000,
,,,-0.05266400054,-12.60000,
,,,-0.05265599862,-13.00000,
,,,-0.05264800042,-12.80000,
,,,-0.05263999850,-12.80000,
,,,-0.05263200030,-12.80000,
,,,-0.05262399837,-13.00000,
,,,-0.05261600018,-12.80000,
,,,-0.05260799825,-13.00000,
,,,-0.05260000005,-13.00000,
,,,-0.05259199813,-12.80000,
,,,-0.05258399993,-12.80000,
,,,-0.05257599801,-12.80000,
,,,-0.05256799981,-12.80000,
,,,-0.05256000161,-13.00000,
,,,-0.05255199969,-13.00000,
,,,-0.05254400149,-12.80000,
,,,-0.05253599957,-13.00000,
,,,-0.05252800137,-12.80000,
,,,-0.05251999944,-13.00000,
,,,-0.05251200125,-13.00000,
,,,-0.05250399932,-13.00000,
,,,-0.05249600112,-13.00000,
,,,-0.05248799920,-13.00000,
,,,-0.05248000100,-12.80000,
,,,-0.05247199908,-12.80000,
,,,-0.05246400088,-12.80000,
,,,-0.05245599896,-12.80000,
,,,-0.05244800076,-12.80000,
,,,-0.05243999884,-12.80000,
,,,-0.05243200064,-12.80000,
,,,-0.05242399871,-12.80000,
,,,-0.05241600052,-12.80000,
,,,-0.05240799859,-12.80000,
,,,-0.05240000039,-12.80000,
,,,-0.05239199847,-12.80000,
,,,-0.05238400027,-12.80000,
,,,-0.05237599835,-12.80000,
,,,-0.05236800015,-13.00000,
,,,-0.05235999823,-12.80000,
,,,-0.05235200003,-12.80000,
,,,-0.05234399810,-13.00000,
,,,-0.05233599991,-12.80000,
,,,-0.05232800171,-12.80000,
,,,-0.05231999978,-12.60000,
,,,-0.05231200159,-12.80000,
,,,-0.05230399966,-13.00000,
,,,-0.05229600146,-12.80000,
,,,-0.05228799954,-12.80000,
,,,-0.05228000134,-12.80000,
,,,-0.05227199942,-13.00000,
,,,-0.05226400122,-12.80000,
,,,-0.05225599930,-13.00000,
,,,-0.05224800110,-13.00000,
,,,-0.05223999918,-12.80000,
,,,-0.05223200098,-12.80000,
,,,-0.05222399905,-12.80000,
,,,-0.05221600085,-12.80000,
,,,-0.05220799893,-13.00000,
,,,-0.05220000073,-12.80000,
,,,-0.05219199881,-13.00000,
,,,-0.05218400061,-13.00000,
,,,-0.05217599869,-13.00000,
,,,-0.05216800049,-12.80000,
,,,-0.05215999857,-13.00000,
,,,-0.05215200037,-13.00000,
,,,-0.05214399844,-13.00000,
,,,-0.05213600025,-12.80000,
,,,-0.05212799832,-13.00000,
,,,-0.05212000012,-12.80000,
,,,-0.05211199820,-12.80000,
,,,-0.05210400000,-12.80000,
,,,-0.05209599808,-12.80000,
,,,-0.05208799988,-12.80000,
,,,-0.05208000168,-13.00000,
,,,-0.05207199976,-13.00000,
,,,-0.05206400156,-13.00000,
,,,-0.05205599964,-12.80000,
,,,-0.05204800144,-13.00000,
,,,-0.05203999951,-12.80000,
,,,-0.05203200132,-12.80000,
,,,-0.05202399939,-13.00000,
,,,-0.05201600119,-12.80000,
,,,-0.05200799927,-12.80000,
,,,-0.05200000107,-12.80000,
,,,-0.05199199915,-12.80000,
,,,-0.05198400095,-13.00000,
,,,-0.05197599903,-13.00000,
,,,-0.05196800083,-12.80000,
,,,-0.05195999891,-12.80000,
,,,-0.05195200071,-12.80000,
,,,-0.05194399878,-12.80000,
,,,-0.05193600059,-13.00000,
,,,-0.05192799866,-12.80000,
,,,-0.05192000046,-12.80000,
,,,-0.05191199854,-13.00000,
,,,-0.05190400034,-12.80000,
,,,-0.05189599842,-12.80000,
,,,-0.05188800022,-12.80000,
,,,-0.05187999830,-12.80000,
,,,-0.05187200010,-12.80000,
,,,-0.05186399817,-12.80000,
,,,-0.05185599998,-12.80000,
,,,-0.05184799805,-12.80000,
,,,-0.05183999985,-12.80000,
,,,-0.05183200166,-12.80000,
,,,-0.05182399973,-12.80000,
,,,-0.05181600153,-13.00000,
,,,-0.05180799961,-13.00000,
,,,-0.05180000141,-12.80000,
,,,-0.05179199949,-12.80000,
,,,-0.05178400129,-12.80000,
,,,-0.05177599937,-13.00000,
,,,-0.05176800117,-12.80000,
,,,-0.05175999925,-12.80000,
,,,-0.05175200105,-12.80000,
,,,-0.05174399912,-12.80000,
,,,-0.05173600093,-13.00000,
,,,-0.05172799900,-12.80000,
,,,-0.05172000080,-13.00000,
,,,-0.05171199888,-12.60000,
,,,-0.05170400068,-12.80000,
,,,-0.05169599876,-12.80000,
,,,-0.05168800056,-13.00000,
,,,-0.05167999864,-12.80000,
,,,-0.05167200044,-12.80000,
,,,-0.05166399851,-13.00000,
,,,-0.05165600032,-12.80000,
,,,-0.05164799839,-12.80000,
,,,-0.05164000019,-12.80000,
,,,-0.05163199827,-12.80000,
,,,-0.05162400007,-13.00000,
,,,-0.05161599815,-12.80000,
,,,-0.05160799995,-12.80000,
,,,-0.05159999803,-13.00000,
,,,-0.05159199983,-12.80000,
,,,-0.05158400163,-12.80000,
,,,-0.05157599971,-12.80000,
,,,-0.05156800151,-12.80000,
,,,-0.05155999959,-12.80000,
,,,-0.05155200139,-12.80000,
,,,-0.05154399946,-13.00000,
,,,-0.05153600127,-13.00000,
,,,-0.05152799934,-13.00000,
,,,-0.05152000114,-12.80000,
,,,-0.05151199922,-12.80000,
,,,-0.05150400102,-12.80000,
,,,-0.05149599910,-12.80000,
,,,-0.05148800090,-12.80000,
,,,-0.05147999898,-13.00000,
,,,-0.05147200078,-12.80000,
,,,-0.05146399885,-12.80000,
,,,-0.05145600066,-12.80000,
,,,-0.05144799873,-12.60000,
,,,-0.05144000053,-12.80000,
,,,-0.05143199861,-12.80000,
,,,-0.05142400041,-13.00000,
,,,-0.05141599849,-13.00000,
,,,-0.05140800029,-13.00000,
,,,-0.05139999837,-12.80000,
,,,-0.05139200017,-12.80000,
,,,-0.05138399825,-12.80000,
,,,-0.05137600005,-13.00000,
,,,-0.05136799812,-13.00000,
,,,-0.05135999992,-12.80000,
,,,-0.05135200173,-13.00000,
,,,-0.05134399980,-12.60000,
,,,-0.05133600160,-12.80000,
,,,-0.05132799968,-12.80000,
,,,-0.05132000148,-12.80000,
,,,-0.05131199956,-13.00000,
,,,-0.05130400136,-13.00000,
,,,-0.05129599944,-12.80000,
,,,-0.05128800124,-12.80000,
,,,-0.05127999932,-12.80000,
,,,-0.05127200112,-12.80000,
,,,-0.05126399919,-12.80000,
,,,-0.05125600100,-12.80000,
,,,-0.05124799907,-13.00000,
,,,-0.05124000087,-13.00000,
,,,-0.05123199895,-13.00000,
,,,-0.05122400075,-12.80000,
,,,-0.05121599883,-12.80000,
,,,-0.05120800063,-12.80000,
,,,-0.05119999871,-12.80000,
,,,-0.05119200051,-13.00000,
,,,-0.05118399858,-12.80000,
,,,-0.05117600039,-12.80000,
,,,-0.05116799846,-12.80000,
,,,-0.05116000026,-12.80000,
,,,-0.05115199834,-12.80000,
,,,-0.05114400014,-12.80000,
,,,-0.05113599822,-12.80000,
,,,-0.05112800002,-13.00000,
,,,-0.05111999810,-12.80000,
,,,-0.05111199990,-12.80000,
,,,-0.05110400170,-12.80000,
,,,-0.05109599978,-12.80000,
,,,-0.05108800158,-13.00000,
,,,-0.05107999966,-12.80000,
,,,-0.05107200146,-12.80000,
,,,-0.05106399953,-13.00000,
,,,-0.05105600134,-13.00000,
,,,-0.05104799941,-12.80000,
,,,-0.05104000121,-13.00000,
,,,-0.05103199929,-13.00000,
,,,-0.05102400109,-12.80000,
,,,-0.05101599917,-12.80000,
,,,-0.05100800097,-12.80000,
,,,-0.05099999905,-12.80000,
,,,-0.05099200085,-13.00000,
,,,-0.05098399892,-13.00000,
,,,-0.05097600073,-13.00000,
,,,-0.05096799880,-12.80000,
,,,-0.05096000060,-12.80000,
,,,-0.05095199868,-12.80000,
,,,-0.05094400048,-13.00000,
,,,-0.05093599856,-12.80000,
,,,-0.05092800036,-12.80000,
,,,-0.05091999844,-12.80000,
,,,-0.05091200024,-12.80000,
,,,-0.05090399832,-13.00000,
,,,-0.05089600012,-13.00000,
,,,-0.05088799819,-13.00000,
,,,-0.05088000000,-12.80000,
,,,-0.05087199807,-13.00000,
,,,-0.05086399987,-12.80000,
,,,-0.05085600168,-12.80000,
,,,-0.05084799975,-12.80000,
,,,-0.05084000155,-13.00000,
,,,-0.05083199963,-13.00000,
,,,-0.05082400143,-12.80000,
,,,-0.05081599951,-12.80000,
,,,-0.05080800131,-12.80000,
,,,-0.05079999939,-12.80000,
,,,-0.05079200119,-12.80000,
,,,-0.05078399926,-12.80000,
,,,-0.05077600107,-12.80000,
,,,-0.05076799914,-12.80000,
,,,-0.05076000094,-12.80000,
,,,-0.05075199902,-12.80000,
,,,-0.05074400082,-13.00000,
,,,-0.05073599890,-12.80000,
,,,-0.05072800070,-12.80000,
,,,-0.05071999878,-12.80000,
,,,-0.05071200058,-13.00000,
,,,-0.05070399866,-13.00000,
,,,-0.05069600046,-13.00000,
,,,-0.05068799853,-12.80000,
,,,-0.05068000033,-13.00000,
,,,-0.05067199841,-13.00000,
,,,-0.05066400021,-13.00000,
,,,-0.05065599829,-12.80000,
,,,-0.05064800009,-12.80000,
,,,-0.05063999817,-12.80000,
,,,-0.05063199997,-13.00000,
,,,-0.05062399805,-13.00000,
,,,-0.05061599985,-12.80000,
,,,-0.05060800165,-12.80000,
,,,-0.05059999973,-12.80000,
,,,-0.05059200153,-12.80000,
,,,-0.05058399960,-12.80000,
,,,-0.05057600141,-12.80000,
,,,-0.05056799948,-13.00000,
,,,-0.05056000128,-12.80000,
,,,-0.05055199936,-13.00000,
,,,-0.05054400116,-12.80000,
,,,-0.05053599924,-12.80000,
,,,-0.05052800104,-12.80000,
,,,-0.05051999912,-13.00000,
,,,-0.05051200092,-12.80000,
,,,-0.05050399899,-13.00000,
,,,-0.05049600080,-12.80000,
,,,-0.05048799887,-13.00000,
,,,-0.05048000067,-12.80000,
,,,-0.05047199875,-13.00000,
,,,-0.05046400055,-12.80000,
,,,-0.05045599863,-13.00000,
,,,-0.05044800043,-12.80000,
,,,-0.05043999851,-13.00000,
,,,-0.05043200031,-12.80000,
,,,-0.05042399839,-12.80000,
,,,-0.05041600019,-13.00000,
,,,-0.05040799826,-12.80000,
,,,-0.05040000007,-12.80000,
,,,-0.05039199814,-13.00000,
,,,-0.05038399994,-12.80000,
,,,-0.05037599802,-12.80000,
,,,-0.05036799982,-12.80000,
,,,-0.05036000162,-13.00000,
,,,-0.05035199970,-12.80000,
,,,-0.05034400150,-12.80000,
,,,-0.05033599958,-12.80000,
,,,-0.05032800138,-13.00000,
,,,-0.05031999946,-12.80000,
,,,-0.05031200126,-13.00000,
,,,-0.05030399933,-12.80000,
,,,-0.05029600114,-12.80000,
,,,-0.05028799921,-12.80000,
,,,-0.05028000101,-12.80000,
,,,-0.05027199909,-12.80000,
,,,-0.05026400089,-12.80000,
,,,-0.05025599897,-13.00000,
,,,-0.05024800077,-13.00000,
,,,-0.05023999885,-12.80000,
,,,-0.05023200065,-12.80000,
,,,-0.05022399873,-12.80000,
,,,-0.05021600053,-12.80000,
,,,-0.05020799860,-12.80000,
,,,-0.05020000041,-12.80000,
,,,-0.05019199848,-12.80000,
,,,-0.05018400028,-13.00000,
,,,-0.05017599836,-12.80000,
,,,-0.05016800016,-13.00000,
,,,-0.05015999824,-13.00000,
,,,-0.05015200004,-13.00000,
,,,-0.05014399812,-12.80000,
,,,-0.05013599992,-12.80000,
,,,-0.05012800172,-12.80000,
,,,-0.05011999980,-12.80000,
,,,-0.05011200160,-13.00000,
,,,-0.05010399967,-12.80000,
,,,-0.05009600148,-13.00000,
,,,-0.05008799955,-13.00000,
,,,-0.05008000135,-12.80000,
,,,-0.05007199943,-13.00000,
,,,-0.05006400123,-12.80000,
,,,-0.05005599931,-12.80000,
,,,-0.05004800111,-12.80000,
,,,-0.05003999919,-12.60000,
,,,-0.05003200099,-12.80000,
,,,-0.05002399907,-12.80000,
,,,-0.05001600087,-12.80000,
,,,-0.05000799894,-12.80000,
,,,-0.05000000075,-12.80000,
,,,-0.04999199882,-9.80000,
,,,-0.04998400062,-9.80000,
,,,-0.04997599870,-9.60000,
,,,-0.04996800050,0.40000,
,,,-0.04995999858,0.40000,
,,,-0.04995200038,0.60000,
,,,-0.04994399846,0.40000,
,,,-0.04993600026,0.60000,
,,,-0.04992799833,0.40000,
,,,-0.04992000014,0.40000,
,,,-0.04991199821,0.40000,
,,,-0.04990400001,0.60000,
,,,-0.04989599809,0.40000,
,,,-0.04988799989,0.40000,
,,,-0.04988000169,0.40000,
,,,-0.04987199977,0.60000,
,,,-0.04986400157,0.40000,
,,,-0.04985599965,0.40000,
,,,-0.04984800145,0.60000,
,,,-0.04983999953,0.60000,
,,,-0.04983200133,0.60000,
,,,-0.04982399940,0.60000,
,,,-0.04981600121,0.40000,
,,,-0.04980799928,0.60000,
,,,-0.04980000108,0.60000,
,,,-0.04979199916,0.60000,
,,,-0.04978400096,0.40000,
,,,-0.04977599904,0.60000,
,,,-0.04976800084,0.40000,
,,,-0.04975999892,0.40000,
,,,-0.04975200072,0.40000,
,,,-0.04974399880,0.40000,
,,,-0.04973600060,0.60000,
,,,-0.04972799867,0.40000,
,,,-0.04972000048,0.40000,
,,,-0.04971199855,0.60000,
,,,-0.04970400035,0.60000,
,,,-0.04969599843,0.60000,
,,,-0.04968800023,0.40000,
,,,-0.04967999831,0.40000,
,,,-0.04967200011,0.40000,
,,,-0.04966399819,0.60000,
,,,-0.04965599999,0.60000,
,,,-0.04964799806,0.60000,
,,,-0.04963999987,0.60000,
,,,-0.04963200167,0.60000,
,,,-0.04962399974,0.40000,
,,,-0.04961600155,0.40000,
,,,-0.04960799962,0.40000,
,,,-0.04960000142,0.60000,
,,,-0.04959199950,0.40000,
,,,-0.04958400130,0.40000,
,,,-0.04957599938,0.40000,
,,,-0.04956800118,0.40000,
,,,-0.04955999926,0.40000,
,,,-0.04955200106,0.40000,
,,,-0.04954399914,0.40000,
,,,-0.04953600094,0.60000,
,,,-0.04952799901,0.40000,
,,,-0.04952000082,0.40000,
,,,-0.04951199889,0.60000,
,,,-0.04950400069,0.40000,
,,,-0.04949599877,0.60000,
,,,-0.04948800057,0.40000,
,,,-0.04947999865,0.40000,
,,,-0.04947200045,0.40000,
,,,-0.04946399853,0.40000,
,,,-0.04945600033,0.60000,
,,,-0.04944799840,0.60000,
,,,-0.04944000021,0.40000,
,,,-0.04943199828,0.40000,
,,,-0.04942400008,0.40000,
,,,-0.04941599816,0.60000,
,,,-0.04940799996,0.40000,
,,,-0.04939999804,0.40000,
,,,-0.04939199984,0.40000,
,,,-0.04938400164,0.40000,
,,,-0.04937599972,0.60000,
,,,-0.04936800152,0.40000,
,,,-0.04935999960,0.40000,
,,,-0.04935200140,0.40000,
,,,-0.04934399948,0.40000,
,,,-0.04933600128,0.40000,
,,,-0.04932799935,0.40000,
,,,-0.04932000116,0.60000,
,,,-0.04931199923,0.40000,
,,,-0.04930400103,0.40000,
,,,-0.04929599911,0.40000,
,,,-0.04928800091,0.40000,
,,,-0.04927999899,0.40000,
,,,-0.04927200079,0.40000,
,,,-0.04926399887,0.40000,
,,,-0.04925600067,0.40000,
,,,-0.04924799874,0.40000,
,,,-0.04924000055,0.40000,
,,,-0.04923199862,0.40000,
,,,-0.04922400042,0.40000,
,,,-0.04921599850,0.40000,
,,,-0.04920800030,0.40000,
,,,-0.04919999838,0.40000,
,,,-0.04919200018,0.40000,
,,,-0.04918399826,0.40000,
,,,-0.04917600006,0.40000,
,,,-0.04916799814,0.40000,
,,,-0.04915999994,0.40000,
,,,-0.04915200174,0.40000,
,,,-0.04914399981,0.40000,
,,,-0.04913600162,0.40000,
,,,-0.04912799969,0.40000,
,,,-0.04912000149,0.40000,
,,,-0.04911199957,0.40000,
,,,-0.04910400137,0.40000,
,,,-0.04909599945,0.40000,
,,,-0.04908800125,0.40000,
,,,-0.04907999933,0.40000,
,,,-0.04907200113,0.40000,
,,,-0.04906399921,0.40000,
,,,-0.04905600101,0.40000,
,,,-0.04904799908,0.40000,
,,,-0.04904000089,0.40000,
,,,-0.04903199896,0.40000,
,,,-0.04902400076,0.40000,
,,,-0.04901599884,0.40000,
,,,-0.04900800064,0.40000,
,,,-0.04899999872,0.40000,
,,,-0.04899200052,0.40000,
,,,-0.04898399860,0.40000,
,,,-0.04897600040,0.40000,
,,,-0.04896799847,0.40000,
,,,-0.04896000028,0.40000,
,,,-0.04895199835,0.40000,
,,,-0.04894400015,0.40000,
,,,-0.04893599823,0.40000,
,,,-0.04892800003,0.40000,
,,,-0.04891999811,0.40000,
,,,-0.04891199991,0.40000,
,,,-0.04890400171,0.40000,
,,,-0.04889599979,0.40000,
,,,-0.04888800159,0.40000,
,,,-0.04887999967,0.40000,
,,,-0.04887200147,0.40000,
,,,-0.04886399955,0.40000,
,,,-0.04885600135,0.40000,
,,,-0.04884799942,0.40000,
,,,-0.04884000123,0.40000,
,,,-0.04883199930,0.40000,
,,,-0.04882400110,0.40000,
,,,-0.04881599918,0.40000,
,,,-0.04880800098,0.40000,
,,,-0.04879999906,0.60000,
,,,-0.04879200086,0.40000,
,,,-0.04878399894,0.40000,
,,,-0.04877600074,0.40000,
,,,-0.04876799881,0.40000,
,,,-0.04876000062,0.40000,
,,,-0.04875199869,0.40000,
,,,-0.04874400049,0.40000,
,,,-0.04873599857,0.40000,
,,,-0.04872800037,0.40000,
,,,-0.04871999845,0.40000,
,,,-0.04871200025,0.40000,
,,,-0.04870399833,0.40000,
,,,-0.04869600013,0.40000,
,,,-0.04868799821,0.40000,
,,,-0.04868000001,0.20000,
,,,-0.04867199808,0.40000,
,,,-0.04866399989,0.40000,
,,,-0.04865600169,0.60000,
,,,-0.04864799976,0.40000,
,,,-0.04864000157,0.40000,
,,,-0.04863199964,0.40000,
,,,-0.04862400144,0.40000,
,,,-0.04861599952,0.40000,
,,,-0.04860800132,0.40000,
,,,-0.04859999940,0.40000,
,,,-0.04859200120,0.40000,
,,,-0.04858399928,0.40000,
,,,-0.04857600108,0.40000,
,,,-0.04856799915,0.40000,
,,,-0.04856000096,0.40000,
,,,-0.04855199903,0.20000,
,,,-0.04854400083,0.40000,
,,,-0.04853599891,0.40000,
,,,-0.04852800071,0.40000,
,,,-0.04851999879,0.40000,
,,,-0.04851200059,0.40000,
,,,-0.04850399867,0.40000,
,,,-0.04849600047,0.40000,
,,,-0.04848799855,0.40000,
,,,-0.04848000035,0.40000,
,,,-0.04847199842,0.40000,
,,,-0.04846400023,0.40000,
,,,-0.04845599830,0.40000,
,,,-0.04844800010,0.40000,
,,,-0.04843999818,0.40000,
,,,-0.04843199998,0.60000,
,,,-0.04842399806,0.40000,
,,,-0.04841599986,0.40000,
,,,-0.04840800166,0.40000,
,,,-0.04839999974,0.40000,
,,,-0.04839200154,0.20000,
,,,-0.04838399962,0.40000,
,,,-0.04837600142,0.40000,
,,,-0.04836799949,0.40000,
,,,-0.04836000130,0.60000,
,,,-0.04835199937,0.40000,
,,,-0.04834400117,0.40000,
,,,-0.04833599925,0.20000,
,,,-0.04832800105,0.40000,
,,,-0.04831999913,0.40000,
,,,-0.04831200093,0.40000,
,,,-0.04830399901,0.40000,
,,,-0.04829600081,0.40000,
,,,-0.04828799888,0.40000,
,,,-0.04828000069,0.40000,
,,,-0.04827199876,0.40000,
,,,-0.04826400056,0.40000,
,,,-0.04825599864,0.40000,
,,,-0.04824800044,0.40000,
,,,-0.04823999852,0.40000,
,,,-0.04823200032,0.20000,
,,,-0.04822399840,0.40000,
,,,-0.04821600020,0.40000,
,,,-0.04820799828,0.40000,
,,,-0.04820000008,0.40000,
,,,-0.04819199815,0.40000,
,,,-0.04818399996,0.40000,
,,,-0.04817599803,0.40000,
,,,-0.04816799983,0.40000,
,,,-0.04816000164,0.40000,
,,,-0.04815199971,0.40000,
,,,-0.04814400151,0.40000,
,,,-0.04813599959,0.40000,
,,,-0.04812800139,0.40000,
,,,-0.04811999947,0.40000,
,,,-0.04811200127,0.40000,
,,,-0.04810399935,0.40000,
,,,-0.04809600115,0.40000,
,,,-0.04808799922,0.40000,
,,,-0.04808000103,0.40000,
,,,-0.04807199910,0.40000,
,,,-0.04806400090,0.40000,
,,,-0.04805599898,0.40000,
,,,-0.04804800078,0.40000,
,,,-0.04803999886,0.40000,
,,,-0.04803200066,0.40000,
,,,-0.04802399874,0.20000,
,,,-0.04801600054,0.40000,
,,,-0.04800799862,0.40000,
,,,-0.04800000042,0.40000,
,,,-0.04799199849,0.40000,
,,,-0.04798400030,0.40000,
,,,-0.04797599837,0.20000,
,,,-0.04796800017,0.40000,
,,,-0.04795999825,0.40000,
,,,-0.04795200005,0.40000,
,,,-0.04794399813,0.40000,
,,,-0.04793599993,0.40000,
,,,-0.04792800173,0.40000,
,,,-0.04791999981,0.40000,
,,,-0.04791200161,0.60000,
,,,-0.04790399969,0.20000,
,,,-0.04789600149,0.40000,
,,,-0.04788799956,0.40000,
,,,-0.04788000137,0.40000,
,,,-0.04787199944,0.40000,
,,,-0.04786400124,0.40000,
,,,-0.04785599932,0.40000,
,,,-0.04784800112,0.40000,
,,,-0.04783999920,0.40000,
,,,-0.04783200100,0.40000,
,,,-0.04782399908,0.20000,
,,,-0.04781600088,0.40000,
,,,-0.04780799896,0.40000,
,,,-0.04780000076,0.40000,
,,,-0.04779199883,0.40000,
,,,-0.04778400064,0.40000,
,,,-0.04777599871,0.40000,
,,,-0.04776800051,0.40000,
,,,-0.04775999859,0.20000,
,,,-0.04775200039,0.40000,
,,,-0.04774399847,0.40000,
,,,-0.04773600027,0.40000,
,,,-0.04772799835,0.40000,
,,,-0.04772000015,0.40000,
,,,-0.04771199822,0.40000,
,,,-0.04770400003,0.40000,
,,,-0.04769599810,0.40000,
,,,-0.04768799990,0.40000,
,,,-0.04768000171,0.40000,
,,,-0.04767199978,0.40000,
,,,-0.04766400158,0.40000,
,,,-0.04765599966,0.40000,
,,,-0.04764800146,0.40000,
,,,-0.04763999954,0.40000,
,,,-0.04763200134,0.40000,
,,,-0.04762399942,0.40000,
,,,-0.04761600122,0.40000,
,,,-0.04760799929,0.40000,
,,,-0.04760000110,0.40000,
,,,-0.04759199917,0.40000,
,,,-0.04758400097,0.40000,
,,,-0.04757599905,0.40000,
,,,-0.04756800085,0.40000,
,,,-0.04755999893,0.40000,
,,,-0.04755200073,0.40000,
,,,-0.04754399881,0.40000,
,,,-0.04753600061,0.40000,
,,,-0.04752799869,0.40000,
,,,-0.04752000049,0.20000,
,,,-0.04751199856,0.40000,
,,,-0.04750400037,0.40000,
,,,-0.04749599844,0.40000,
,,,-0.04748800024,0.40000,
,,,-0.04747999832,0.40000,
,,,-0.04747200012,0.40000,
,,,-0.04746399820,0.40000,
,,,-0.04745600000,0.40000,
,,,-0.04744799808,0.40000,
,,,-0.04743999988,0.40000,
,,,-0.04743200168,0.40000,
,,,-0.04742399976,0.40000,
,,,-0.04741600156,0.40000,
,,,-0.04740799963,0.40000,
,,,-0.04740000144,0.40000,
,,,-0.04739199951,0.40000,
,,,-0.04738400131,0.40000,
,,,-0.04737599939,0.40000,
,,,-0.04736800119,0.40000,
,,,-0.04735999927,0.60000,
,,,-0.04735200107,0.40000,
,,,-0.04734399915,0.40000,
,,,-0.04733600095,0.40000,
,,,-0.04732799903,0.40000,
,,,-0.04732000083,0.40000,
,,,-0.04731199890,0.40000,
,,,-0.04730400071,0.20000,
,,,-0.04729599878,0.40000,
,,,-0.04728800058,0.60000,
,,,-0.04727999866,0.40000,
,,,-0.04727200046,0.40000,
,,,-0.04726399854,0.40000,
,,,-0.04725600034,0.40000,
,,,-0.04724799842,0.40000,
,,,-0.04724000022,0.40000,
,,,-0.04723199829,0.40000,
,,,-0.04722400010,0.40000,
,,,-0.04721599817,0.40000,
,,,-0.04720799997,0.40000,
